0,,2,,6,,12,,20,,40,,60,,80,,100,,120,,160,,200,,400,,600,,800,,1000,,1200,,1400,,1600,,1800,,2000,,2200,,2400,,
Wavelength (nm),Abs,Wavelength (nm),Abs,Wavelength (nm),Abs,Wavelength (nm),Abs,Wavelength (nm),Abs,Wavelength (nm),Abs,Wavelength (nm),Abs,Wavelength (nm),Abs,Wavelength (nm),Abs,Wavelength (nm),Abs,Wavelength (nm),Abs,Wavelength (nm),Abs,Wavelength (nm),Abs,Wavelength (nm),Abs,Wavelength (nm),Abs,Wavelength (nm),Abs,Wavelength (nm),Abs,Wavelength (nm),Abs,Wavelength (nm),Abs,Wavelength (nm),Abs,Wavelength (nm),Abs,Wavelength (nm),Abs,Wavelength (nm),Abs,
500,0.0002238936722,500,-0.001007193234,500,0.0002501563577,500,0.0003429173375,500,0.0005783408997,500,0.0007610149332,500,0.001987145515,500,8.587224875E-005,500,0.0001816539443,500,-7.506282418E-005,500,0.001333905384,500,0.0005295613664,500,9.255219629E-005,500,-3.05443682E-005,500,-0.0001888229745,500,-0.0001114506813,500,-0.0002930855553,500,-5.047470404E-005,500,0.001267023152,500,-0.0003003286838,500,0.001187639777,500,0.0006609832053,500,0.0006889835349,
499,0.0001861859055,499,-0.0009079066804,499,0.0002323110239,499,0.0002607240749,499,0.0005199460429,499,0.0007631153567,499,0.00102279312,499,1.796523429E-005,499,0.0002239195746,499,-5.073353532E-005,499,0.001178736682,499,0.0007223529974,499,-4.648871254E-005,499,-9.436998516E-005,499,-0.0002412419853,499,-0.0001632579952,499,-0.0003430606448,499,-8.267191151E-005,499,0.001047677011,499,-0.0001729356009,499,0.001269437606,499,0.0006397767575,499,0.0008161225705,
498,0.0003034895635,498,-0.0009152945713,498,0.0002643761982,498,0.000414295384,498,0.0004516860936,498,0.001064362237,498,0.0005376476911,498,8.147078188E-005,498,0.0002522543364,498,6.4590291E-005,498,0.001178425271,498,6.433139788E-005,498,3.476624624E-005,498,-0.0001830269903,498,-0.0001839067409,498,-0.0001410038676,498,-0.0003555276489,498,-4.353801705E-005,498,0.001399031957,498,-0.0002851697209,498,0.001246410073,498,0.0009181615314,498,0.0008770992281,
497,0.0001971404999,497,-0.0009132280247,497,0.0002223138144,497,0.0002774826717,497,0.0005184169277,497,0.0009788670577,497,0.0006488502841,497,5.744476221E-005,497,0.0001967261342,497,-1.553155357E-006,497,0.001099265763,497,0.001054527471,497,-1.734325269E-005,497,-0.0001479907514,497,-0.0002689237008,497,-0.0001962230745,497,-0.0004162021796,497,1.527274776E-006,497,0.001521521364,497,-0.0002116956166,497,0.001196335419,497,0.0006683461252,497,0.001027022605,
496,0.0002429300803,496,-0.0009373540524,496,0.000222287912,496,0.0002122909355,496,0.0005359111819,496,0.0008397756028,496,0.0007164670969,496,-6.388187467E-005,496,4.817645822E-005,496,-0.0001142973924,496,0.001136897132,496,0.0009112613043,496,-6.885612947E-006,496,-0.0001181274929,496,-0.0002671128022,496,-4.659224214E-005,496,-0.0004562334507,496,-5.839481673E-005,496,0.001293323003,496,-0.0002311002027,496,0.001199917635,496,0.0007519131177,496,0.001085070428,
495,0.0001180560575,495,-0.0009758909582,495,0.0002646351932,495,0.0002528241603,495,0.0005194277037,495,0.0008697069134,495,0.0007247643662,495,7.831211406E-005,495,0.0001678252738,495,4.566524876E-005,495,0.001203188207,495,0.0005727421376,495,-3.722242764E-005,495,-6.28983471E-005,495,-0.0002186296188,495,-0.0001549775188,495,-0.0003916333953,495,-0.0001106743002,495,0.001287896768,495,-0.0002383960964,495,0.001295789494,495,0.0008789408603,495,0.001119093155,
494,0.000157544695,494,-0.0008856906788,494,0.0003559743636,494,0.0003328398743,494,0.0005156956613,494,0.0007769370568,494,0.0006654942408,494,2.430760469E-005,494,6.197542825E-005,494,2.821662201E-005,494,0.001250356087,494,0.0009736004286,494,-5.741128189E-005,494,-0.0001399169996,494,-0.0002184226323,494,-0.0002003629343,494,-0.0004294946266,494,-5.02158764E-005,494,0.001306642313,494,-0.0001771274401,494,0.001281873439,494,0.000855311635,494,0.001195452875,
493,9.993133426E-005,493,-0.0009979474125,493,0.0001181078478,493,0.0002493534412,493,0.0003246795968,493,-0.0003915816487,493,0.0006027068594,493,-7.956617628E-005,493,1.920781324E-005,493,-0.0001047219994,493,0.000981046469,493,0.0005364554818,493,2.588604502E-006,493,-0.000238447843,493,-0.0002596104168,493,-0.0002420181263,493,-0.0005300798803,493,-0.0001867529936,493,0.001148965792,493,-0.0004184262361,493,0.001131628524,493,0.0005066249287,493,0.001144839101,
492,0.0003371402563,492,-0.000888118986,492,0.0002748924308,492,0.0002976612013,492,0.0005880093668,492,0.001455207588,492,0.0006979284808,492,4.103119863E-005,492,0.0003229957656,492,3.080441047E-006,492,0.001176478458,492,0.0006405285676,492,3.776927042E-005,492,-0.0002142829471,492,-0.000254022365,492,-0.000221889597,492,-0.0003601315548,492,-7.573574112E-005,492,0.001269177999,492,-0.0002213203989,492,0.001230340917,492,0.0007252829382,492,0.001452844124,
491,0.0003025570186,491,-0.0008423403488,491,0.0003348864266,491,0.0003847063927,491,0.0006141385529,491,0.0008429916925,491,0.0007320246077,491,2.039862193E-005,491,0.000159538642,491,-3.758479943E-005,491,0.001189326984,491,0.000463113829,491,4.028043622E-005,491,-0.0001586002472,491,-0.0002773572342,491,-0.0001155913487,491,-0.0003858918499,491,-2.17441584E-006,491,0.001455363468,491,-0.0001921866642,491,0.001286416897,491,0.0006041844026,491,0.001444610767,
490,0.0001944212418,490,-0.0008255467401,490,0.0003450416843,490,0.0003350418701,490,0.0006209303392,490,0.00136727246,490,0.0008178861463,490,0.0001513557363,490,0.0003376583627,490,4.55616937E-005,490,0.001196309458,490,0.0007679905393,490,5.534772572E-005,490,-7.894502778E-005,490,-0.0002411902387,490,-0.0001710725483,490,-0.0003818054684,490,2.303912333E-005,490,0.001372206258,490,-0.000185666242,490,0.00134460337,490,0.001002503093,490,0.001617750153,
489,0.0002567870542,489,-0.000895662175,489,0.0002657489968,489,0.0004180265241,489,0.0005532247014,489,0.0007773260586,489,0.0007670569466,489,0.0001171239128,489,0.0001141203393,489,-1.216623514E-005,489,0.001076636487,489,0.0009237388149,489,-5.145825708E-005,489,-0.000121957557,489,-0.0001983965049,489,-1.159675867E-005,489,-0.000426339655,489,2.964044506E-005,489,0.001431157463,489,-0.0001846312516,489,0.00118888577,489,0.0009520414751,489,0.001670393976,
488,0.0001192471391,488,-0.0009229406132,488,0.0002219771268,488,0.000205505552,488,0.0005627630162,488,0.0009251396405,488,0.000689139124,488,-2.288259384E-005,488,0.0001246329339,488,-2.712764763E-005,488,0.0009332073969,488,0.0004506754922,488,-0.0001439538901,488,-5.761834473E-005,488,-0.0003033810935,488,-0.0002502452116,488,-0.000435132155,488,-0.0001141938774,488,0.001309342566,488,-0.0002197680296,488,0.001143411617,488,0.0006718201912,488,0.001616996597,
487,0.0001869887055,487,-0.00087354891,487,0.000266215211,487,0.0002637286379,487,0.0005106678582,487,0.001024609432,487,0.0007201749249,487,2.296146158E-005,487,0.0001314170513,487,-2.795675528E-006,487,0.001112656901,487,0.0003476582351,487,-1.848218744E-005,487,-7.972805179E-006,487,-0.0003566139494,487,-0.000160463358,487,-0.0004795057175,487,-4.835229629E-005,487,0.0012971916,487,-0.000267268013,487,0.001199891674,487,0.0005900053075,487,0.001679670997,
486,9.073979891E-005,486,-0.0008122664294,486,0.0002857456566,486,0.0003160532215,486,0.000475422974,486,-0.000796091801,486,0.000812673301,486,4.799523595E-005,486,7.991733582E-005,486,-9.457702981E-005,486,0.001202928717,486,0.0007098812493,486,-7.112881576E-005,486,-9.2868926E-005,486,-0.0003072095278,486,-0.0002708380634,486,-0.0003940127499,486,-0.0001081381124,486,0.001413808903,486,-0.0002360676299,486,0.001296490547,486,0.0008940113476,486,0.001796261175,
485,8.059049287E-005,485,-0.0009140546317,485,0.0002563467133,485,0.0002317671315,485,0.0004030503042,485,0.002689840272,485,0.000610690855,485,-6.383010623E-005,485,8.543209697E-005,485,-7.283700688E-005,485,0.0009143482312,485,0.0005579160643,485,-0.0001147632211,485,-4.431451816E-005,485,-0.0003056574787,485,-0.0003390773199,485,-0.000290188269,485,-0.0001773344411,485,0.001189326984,485,-0.0003450264048,485,0.001186212176,485,0.0007044622907,485,0.001759352279,
484,0.0002698673925,484,-0.0009512504912,484,0.000295511185,484,0.0004207990132,484,0.0005526285968,484,0.0009528716328,484,0.0008034406928,484,0.0001089418147,484,0.0001989015436,484,6.712750474E-005,484,0.00103138166,484,0.000535963045,484,8.983360021E-005,484,2.976988435E-005,484,-0.0002026915899,484,-0.0001580827229,484,-0.0003842365986,484,-3.934649158E-006,484,0.001373686478,484,-0.0002062104322,484,0.001392228063,484,0.0008782405057,484,0.001963091781,
483,0.0002494311484,483,-0.0007841542247,483,0.0003776074154,483,0.0003625289537,483,0.0005265290383,483,0.001024972764,483,0.0007145224954,483,0.0001095632397,483,0.0002393299364,483,-8.318953769E-005,483,0.001187068759,483,0.001115304069,483,8.685611101E-005,483,-1.599723328E-005,483,-0.0002234937128,483,-0.0001425047521,483,-0.0005664296332,483,2.51094616E-006,483,0.001392565551,483,-0.0001943601237,483,0.001321364194,483,0.0009900493314,483,0.001979942201,
482,0.0002678988385,482,-0.0008033781778,482,0.0002534975938,482,0.0003033859539,482,0.0006117796293,482,0.00111032126,482,0.0007392849657,482,4.732212983E-005,482,0.0001843213104,482,0.0001477304613,482,0.001133704791,482,0.001377971261,482,-3.799893966E-005,482,-4.695460666E-005,482,-0.0002790646104,482,-0.0001460240746,482,-0.000218991845,482,4.356827048E-005,482,0.001372673782,482,-0.0001650175836,482,0.001353561762,482,0.0009394853259,482,0.002037675586,
481,-6.854063395E-005,481,-0.0009865318425,481,0.0001296562841,481,0.0002691939299,481,0.0004718468117,481,0.0007394665154,481,0.0007061216747,481,-0.0001288412313,481,0.0001622576674,481,3.305764039E-005,481,0.001194752054,481,-0.0001015129019,481,-0.0002090047783,481,-0.0001088109784,481,-0.0004451140121,481,-0.0003549586108,481,-0.0006383962464,481,-6.429598579E-005,481,0.001215855824,481,-0.0002393792238,481,0.001203629537,481,0.0008386344416,481,0.002065530745,
480,7.155471394E-005,480,-0.0009015519754,480,0.0001252543734,480,0.0002391745365,480,0.0004553398176,480,0.0008839210495,480,0.0007755886181,480,5.625385165E-005,480,0.0001764487097,480,1.317615806E-005,480,0.001136352075,480,0.001050764928,480,-6.947237853E-005,480,-1.190738203E-005,480,-0.000370011694,480,-0.0001870117412,480,-0.0005865938729,480,-6.155246956E-005,480,0.001407108502,480,-0.0001557020732,480,0.001329958555,480,0.0008069936885,480,0.002091150731,
479,2.886381299E-005,479,-0.0009466011543,479,0.0002257066226,479,0.00034294324,479,0.0005851321621,479,0.0009293421172,479,0.0007428893005,479,-2.464274257E-005,479,0.0001971922902,479,2.731055611E-005,479,0.001115407911,479,0.0006147088716,479,-0.0001325159392,479,-0.0001052395965,479,-0.0005179798463,479,-0.000376115524,479,-0.0004743859172,479,-0.0001830269903,479,0.001269541448,479,-0.0003126416996,479,0.001233897405,479,0.0006911095697,479,0.002102491679,
478,-9.105729259E-005,478,-0.001092049177,478,0.0002346938272,478,0.000326233916,478,0.000422198209,478,0.0006833574153,478,0.0005404727999,478,-0.0001370186947,478,0.0001234936208,478,-0.0001647588215,478,0.0009581899503,478,0.00102307857,478,-0.0002560402791,478,-0.0002516422246,478,-0.0004747479397,478,-0.0004032196885,478,-0.0007065261016,478,-0.0003224194515,478,0.001150938333,478,-0.0003889436484,478,0.00111003581,478,0.0006222265074,478,0.001870582229,
477,0.0001556802308,477,-0.0006658459315,477,0.0002954334777,477,0.0003061835887,477,0.0005680246977,477,0.0009735744679,477,0.0007739808061,477,6.790420593E-005,477,0.0002155023685,477,1.747337956E-005,477,0.001244696672,477,0.000145063299,477,-0.0001664666343,477,-0.0001967405551,477,-0.0005183935282,477,-0.000436942355,477,-0.0005989504862,477,-0.0001345344208,477,0.001250122441,477,-0.000326040783,477,0.001310225343,477,0.0007280833088,477,0.00213123532,
476,0.0002746852115,476,-0.0007454452571,476,0.0002808759164,476,0.000429660693,476,0.0006378065445,476,-0.0002078145917,476,0.0007493978483,476,0.0002224951168,476,0.000202086987,476,6.386538007E-005,476,0.00117383094,476,0.0004948591231,476,-0.0001272367808,476,-0.0001654316002,476,-0.0004286670883,476,-0.0003602350189,476,-0.0005280632176,476,-4.902525689E-005,476,0.001327803475,476,-0.0002543328155,476,0.001366934855,476,0.0008698366,476,0.002226584591,
475,0.0001460472995,475,-0.0007844642969,475,0.0002902268898,475,0.0003776333178,475,0.0005075319787,475,0.005450019613,475,0.0008579312707,475,0.0002365845285,475,0.0002818343055,475,-7.34064015E-005,475,0.001201293315,475,0.001186316018,475,-0.0001567888976,475,-0.0001692612423,475,-0.0003897195566,475,-0.0003859952849,475,-0.0005953314248,475,-0.0001652763458,475,0.001377114211,475,-0.0002239594178,475,0.001327362028,475,0.0008877340588,475,0.002308214083,
474,6.759352254E-005,474,-0.000834279519,474,0.0005991036887,474,0.0004103310639,474,0.0006118573947,474,0.0008132438525,474,0.0007462861831,474,-0.0003275410272,474,0.0001550328452,474,-6.109045444E-006,474,0.001103469869,474,0.0007375995046,474,-0.0001133139885,474,-0.0001575134374,474,-0.0005700489273,474,-0.0002695963194,474,-0.0006165800733,474,-9.395590314E-005,474,0.001301319804,474,-0.0002343083324,474,0.001327907317,474,0.0009898677235,474,0.00223134621,
473,8.087529568E-005,473,-0.0007930945139,473,8.431878086E-005,473,0.0003128151293,473,0.0004639948893,473,-0.0002019671228,473,0.0006886465126,473,0.0001533496543,473,2.658570338E-005,473,-0.000140434553,473,0.001008730149,473,-0.0001211294366,473,-0.0002491068735,473,-0.0002497277746,473,-0.0004297532432,473,-0.0003782363201,473,-0.0007038383046,473,-0.0002167667699,473,0.001272241469,473,-0.0002692858689,473,0.001207419438,473,0.0006489799125,473,0.002179882955,
472,9.371731721E-005,472,-0.000777074194,472,4.890134733E-005,472,0.0002909003815,472,0.0004973729374,472,0.001031122287,472,0.0007175561041,472,-0.0003368011385,472,7.199484389E-005,472,-0.0001617054222,472,0.000828286109,472,0.0007631931803,472,-0.0002693893621,472,-0.000203157324,472,-0.0006394818774,472,-0.0004722138692,472,-0.0007018741453,472,-8.17919572E-005,472,0.001234780066,472,-0.0002792715677,472,0.001220684149,472,4.030632408E-005,472,0.002224008786,
471,3.486979767E-005,471,-0.0008393950411,471,0.0004608075251,471,0.0003555339354,471,0.0004345579946,471,0.0008934406796,471,0.0007684054435,471,8.723658539E-006,471,3.458503124E-005,471,2.309089723E-005,471,0.0009960685857,471,0.0006661942462,471,-0.0001678121916,471,-0.000179766721,471,-0.0005420244415,471,-0.0004105644184,471,-0.0006081531174,471,-0.0001573581831,471,0.001254795352,471,-0.0003038984723,471,0.00129802234,471,0.001835278701,471,0.002202647738,
470,0.0002821451344,470,-0.0007504068199,470,0.0004291942751,470,0.0003656896879,470,0.0004859961336,470,0.0008788111736,470,0.0006813610671,470,-8.024576346E-006,470,0.0001639149996,470,-2.899131687E-005,470,0.0007408926613,470,0.0007896700408,470,-0.0001707102929,470,-0.0002597139101,470,-0.0005182900932,470,-0.0004713347007,470,-0.0006785104051,470,-0.0001638790272,470,0.001241114223,470,-0.0003556311131,470,0.001273202011,470,0.0005772263394,470,0.0021642996,
469,-1.625608456E-005,469,-0.0006953614065,469,4.460381388E-005,469,0.0003429173375,469,0.0005935305962,469,0.0009394075023,469,0.0007649046602,469,-3.986420779E-006,469,0.0002368953283,469,-5.798069833E-005,469,0.002565536648,469,0.0004721059522,469,-0.0001505784603,469,-0.0002373612224,469,-0.0004825569049,469,-0.0004131505557,469,-0.0005951763596,469,-0.0001724180911,469,0.001246254309,469,-0.0002446052677,469,0.001360001625,469,0.0007694686064,469,0.002437337767,
468,0.000257926702,468,-0.0007464272203,468,0.0003227885172,468,0.0004113933828,468,0.0005441272515,468,0.0008434067131,468,0.0006592462305,468,2.316855898E-005,468,0.0001591502078,468,-5.057823728E-005,468,-0.0005325618549,468,0.0006184676313,468,-0.0002083320724,468,-0.0002318763582,468,-0.0005174110411,468,-0.0005043281126,468,-0.0007304569008,468,-0.0001425565133,468,0.001189975883,468,-0.0003482854518,468,0.001387735363,468,0.001021677395,468,0.00238137343,
467,0.0001849428518,467,-0.0007746452466,467,0.0001482483494,467,0.0004275100364,467,0.0005289652618,467,0.000881482847,467,0.0006781202392,467,-0.0001046184843,467,0.0001128257063,467,-0.0001388818928,467,0.00161517784,467,0.0005848729052,467,-0.0002306344977,467,-0.0002140759607,467,-0.0005917123635,467,-0.0003109344689,467,-0.000646925997,467,-0.0001474732126,467,0.001251031063,467,-0.0001959643268,467,0.001497519435,467,0.001239374862,467,0.002383663785,
466,0.0001434578444,466,-0.0007813118864,466,0.0003053028486,466,0.0003934378037,466,0.000551695528,466,0.0009387849132,466,0.0007067698753,466,-3.256332639E-005,466,0.0001553435868,466,-3.277040014E-005,466,0.0008918583626,466,0.0006206192775,466,-0.0002123165759,466,-0.0002442948171,466,-0.0005448166048,466,-0.000506293145,466,-0.0006114101852,466,-0.0001458170591,466,0.001381321112,466,-0.0002207512007,466,0.001390384161,466,0.0005413021427,466,0.002439134056,
465,-0.0001046184843,465,-0.0008001742535,465,0.0005072728381,465,0.0003488499497,465,0.0005107974284,465,0.0008655309211,465,0.0007162337424,465,-5.10441314E-005,465,0.0001312358072,465,-7.231937343E-005,465,0.001097293454,465,0.0005813736352,465,-0.0002945341985,465,-0.0002365333203,465,-0.0006962917978,465,-0.000400633493,465,-0.000631158764,465,-4.736873962E-005,465,0.001402226277,465,-0.0001682779548,465,0.001379529363,465,0.0009172536083,465,0.002321252134,
464,-1.190752869E-006,464,-0.00076379237,464,0.000127973195,464,0.000270851684,464,0.0004393517156,464,0.0009204443195,464,0.0007491125725,464,-0.0001712278026,464,6.18977574E-005,464,-0.0001768169313,464,0.001062675496,464,0.0003339797258,464,-0.0002514870139,464,-0.000372391165,464,-0.0005740817869,464,-0.0004523546086,464,-0.0005687563098,464,-9.468055214E-005,464,0.001327621751,464,-0.0002659745223,464,0.001383632305,464,0.000662072096,464,0.002357896417,
463,0.0003162345383,463,-0.0006516302237,463,0.0002495865629,463,0.0004075845645,463,0.000545267656,463,0.0009114947752,463,0.0006909799413,463,-1.827510823E-005,463,4.129008084E-005,463,-6.569361722E-005,463,0.0009985334473,463,0.0005971596111,463,-0.0002811341546,463,-0.0002755463647,463,-0.0006161664496,463,-0.0003811330243,463,-0.0005044315476,463,-0.0001350002276,463,0.001259702025,463,-0.0001547187567,463,0.001380438218,463,0.0009746641736,463,0.002259682165,
462,2.270258847E-005,462,-0.0007499933708,462,0.0003212082956,462,0.0003883595637,462,0.0004796211142,462,0.0008652715478,462,0.0006494984264,462,-0.000116885305,462,0.0001005009544,462,-0.0001333440305,462,0.0009559847531,462,0.0006264260737,462,-0.0001454547746,462,-0.0002011909091,462,-0.0004528200661,462,-0.0004502858792,462,-0.0007656529197,462,-0.0001348449587,462,0.001323337434,462,-0.000283928006,462,0.001304461388,462,0.0009252433665,462,0.002317114267,
461,0.0002178073773,461,-0.0006686889683,461,0.0003836959659,461,0.000447876926,461,0.0006401137798,461,0.00106638635,461,0.000815111096,461,0.0001009929038,461,0.0002797879861,461,-1.6307853E-005,461,0.00116773136,461,0.0007829534006,461,-2.013881567E-005,461,-6.740183017E-005,461,-0.0004874180304,461,-0.0003663907119,461,-0.000531475991,461,-1.667024299E-005,461,0.001391422935,461,-0.0002313071745,461,0.001541653881,461,0.001075287117,461,0.002374371747,
460,0.0003021425509,460,-0.0005826128181,460,0.0005714720464,460,0.0004515565233,460,0.0005657437723,460,0.000982862548,460,0.000816693122,460,0.0001787794026,460,0.0001944212418,460,9.894744289E-005,460,0.001151042175,460,0.0006162642385,460,-8.101552521E-005,460,-0.0002638014266,460,-0.0005110506318,460,-0.0004182193661,460,-0.0005441444227,460,-0.0001043596858,460,0.001353535801,460,-0.0001515100303,460,0.00137303723,460,0.000829712546,460,0.002385303611,
459,0.0001400397741,459,-0.0007641541306,459,0.0002471777843,459,0.0003607413091,459,0.0005901608383,459,0.0009097568109,459,0.000797864981,459,8.152256487E-005,459,0.0001561722311,459,-0.0001184897992,459,0.001120546483,459,0.0006537500885,459,-0.0002560920257,459,-0.0003349387844,459,-0.0006253686734,459,-0.0005768737756,459,-0.0009073900292,459,-0.0002110746573,459,0.001143048285,459,-0.0003526307701,459,0.001265153871,459,0.0007854689029,459,0.0022471142,
458,3.10383839E-005,458,-0.0006249034195,458,0.0002330362186,458,0.00031825513,458,0.0005378809874,458,0.0008953601937,458,0.000750046107,458,-8.645052731E-005,458,2.301323548E-005,458,-7.873797585E-005,458,0.0008760357741,458,0.0006353437784,458,-0.0002864631824,458,-0.0004047713883,458,-0.0009019136196,458,-0.0006210260908,458,-0.0008375865291,458,-0.0003808226611,458,0.001127268421,458,-0.0003197292972,458,0.001073496533,458,0.000752846594,458,0.002139117569,
457,0.0001202569692,457,-0.0007518539205,457,0.0003012877132,457,0.0004284428433,457,0.0005008456646,457,0.0009105349891,457,0.0007129408186,457,-0.0001032209766,457,9.335483628E-005,457,-0.0001031174543,457,0.0007325172774,457,0.0004959216458,457,-0.0004058058839,457,-0.0004848323297,457,-0.000794954889,457,-0.0006621757057,457,-0.0009220623178,457,-0.0004021334753,457,0.001154727768,457,-0.0004771785461,457,0.001045004348,457,0.0004344543559,457,0.002136281924,
456,-4.457334944E-005,456,-0.0007231692434,456,0.0002226764045,456,0.0002661116014,456,0.0004425907682,456,0.000807719829,456,0.0005472374614,456,-0.0001032209766,456,1.027685084E-005,456,-0.0002327560214,456,0.001002477133,456,0.00031714121,456,-0.0005044315476,456,-0.0005655506393,456,-0.000978008844,456,-0.0007717511617,456,-0.001073819119,456,-0.0005354575696,456,0.0008964237059,456,-0.0005914538633,456,0.001036052243,456,0.0005756192841,456,0.001911920495,
455,-2.019100748E-006,455,-0.0006267645513,455,0.0004441195924,455,0.0004275100364,455,0.0004876028688,455,0.0008667499642,455,0.0006808943581,455,-0.0001042561635,455,7.610541161E-006,455,-0.0001093285682,455,0.0009384736186,455,0.0005262698396,455,-0.0004646115995,455,-0.0005781146465,455,-0.0008711204864,455,-0.0008584099123,455,-0.00106132112,455,-0.0004651287745,455,0.001034651068,455,-0.0004099954676,455,0.001047521364,455,0.0007937934133,455,0.002100540791,
454,-3.830954302E-005,454,-0.0007645158912,454,0.0004358276783,454,0.0004424352956,454,0.000512067345,454,0.000893700053,454,0.0006202044897,454,-7.485577225E-005,454,4.918337027E-007,454,-0.0002153696114,454,0.0008996142424,454,0.000470602914,454,-0.0004391145776,454,-0.0005269256071,454,-0.0009307931759,454,-0.0008654886042,454,-0.0009136412991,454,-0.0004373044067,454,0.001010286855,454,-0.0004342529282,454,0.001143593225,454,0.0004493539454,454,0.002072007162,
453,0.000148999301,453,-0.0005127053591,453,0.0003271406167,453,0.0004722614249,453,0.0005242482875,453,0.0009174870793,453,0.0007478938205,453,-2.215782297E-005,453,2.389340625E-005,453,-0.0001824577485,453,0.0009517042199,453,0.0004634766374,453,-0.000464249606,453,-0.0004939339124,453,-0.000951043854,453,-0.000879387313,453,-0.0009574494325,453,-0.0003770983312,453,0.001063479926,453,-0.0004056507023,453,0.00127499341,453,0.0008667240618,453,0.002316281432,
452,0.0003051215317,452,-0.000692104979,452,0.0003174779704,452,0.0004658347752,452,0.0004913346493,452,0.0009396669338,452,0.0006253632018,452,-3.779186954E-005,452,6.534109707E-005,452,-0.0002449674648,452,0.0008692140691,452,0.0004922157386,452,-0.0004849874531,452,-0.0006515267887,452,-0.0009513537516,452,-0.0008361397195,452,-0.000959825702,452,-0.000358165853,452,0.001112527214,452,-0.0002470371837,452,0.001378178946,452,0.0007257237448,452,0.002298272913,
451,8.317958418E-005,451,-0.0006152358837,451,0.0002332434233,451,0.000355870754,451,0.0005564905005,451,0.0008091721684,451,0.000589823816,451,-0.0001982930116,451,3.331651897E-005,451,-0.0002994491661,451,0.0008135809912,451,0.0003127633245,451,-0.0006779418327,451,-0.0006945343921,451,-0.001117559499,451,-0.000909973227,451,-0.0009660762735,451,-0.0003536136355,451,0.001124699018,451,-0.0002838762884,451,0.001350289909,451,0.000960472913,451,0.002337309765,
450,0.0002735196031,450,-0.0006249551079,450,0.0002729238477,450,0.0003616221657,450,0.0004945999826,450,0.0008514729561,450,0.0006383768632,450,-8.733047434E-005,450,-0.0001176616715,450,-0.0002566094336,450,0.0008121546125,450,0.0003938523296,450,-0.0006161664496,450,-0.0006373623619,450,-0.0009960362222,450,-0.0007853428251,450,-0.001126389718,450,-0.0002996043768,450,0.001160308137,450,-0.000234360079,450,0.00123859616,450,0.001059821108,450,0.002380670514,
449,-0.0001009953048,449,-0.0006756673683,449,0.0002263282076,449,0.0002689349058,449,0.0003243946412,449,0.0007677571266,449,0.0006456356496,449,-0.0002222000767,449,-6.678066711E-005,449,-0.0003444056492,449,0.0006417470286,449,0.0002887244918,449,-0.0005949695478,449,-0.0007004785584,449,-0.001177404891,449,-0.0009174643783,449,-0.0009928853251,449,-0.000416926312,449,0.001242490136,449,-0.0003081925097,449,0.001397603657,449,0.0005367664853,449,0.002262804657,
448,3.849414134E-005,448,-0.0006123924395,448,0.0002306534443,448,0.0003801464627,448,0.0005387880956,448,0.0009883368621,448,0.0006990692928,448,-1.019895171E-005,448,-1.397819779E-005,448,-0.0003219538485,448,0.0009188359836,448,0.0004380820319,448,-0.0005861802492,448,-0.0006725658895,448,-0.0009323429549,448,-0.0008330393466,448,-0.0009576560697,448,-0.000239741421,448,0.001230963971,448,-0.0002143864403,448,0.001409264049,448,0.001021573669,448,0.002402170561,
447,2.899325227E-005,447,-0.0006542149349,447,0.0003058468283,447,0.0003044998157,447,0.0004566873249,447,0.0007016102318,447,0.0005251035327,447,-0.000164189536,447,-0.0001416766754,447,-0.0003150732373,447,0.0006685794215,447,0.0002656712895,447,-0.0007743351744,447,-0.0009455163381,447,-0.001246172935,447,-0.001081462484,447,-0.001110329991,447,-0.000581682194,447,0.001060262206,447,-0.0003256269265,447,0.001410380821,447,0.0007388701197,447,0.002167317318,
446,0.0001221730636,446,-0.0005651887041,446,0.0002757990151,446,0.0003223740496,446,0.000394888717,446,0.0007010397967,446,0.000554468832,446,-0.0001738671272,446,-0.0001012541034,446,-0.0004300118308,446,0.0006676201592,446,0.0001508378482,446,-0.000823479786,446,-0.0009429333149,446,-0.001422792906,446,-0.001139660366,446,-0.001224129112,446,-0.0004094265169,446,0.001029487583,446,-0.0002207512007,446,0.001566203777,446,0.0006932356046,446,0.002299756277,
445,0.0002167455241,445,-0.0004675594391,445,0.0003581505734,445,0.0004914901219,445,0.0005586417974,445,0.0009717065259,445,0.000630884897,445,-0.0001170923351,445,-8.997030818E-005,445,-0.0004756788258,445,0.0006882835296,445,0.0002143628226,445,-0.0008538629627,445,-0.00102015771,445,-0.001264240826,445,-0.001062663854,445,-0.001160985674,445,-0.0004089092836,445,0.001207886613,445,-0.0001120717789,445,0.001547940541,445,0.0009828365874,445,0.002498490503,
444,0.0001128257063,444,-0.0005270290421,444,0.0003311041801,444,0.0004124557308,444,0.0004772369575,444,0.0008982394938,444,0.0005836287164,444,-0.0002888430899,444,-0.0001610326435,444,-0.0003499925369,444,0.0005184687907,444,0.0002016985236,444,-0.0009298115619,444,-0.001109710312,444,-0.001453856588,444,-0.00117348088,444,-0.001181277214,444,-0.0004163573612,444,0.001389163663,444,-0.0001445749513,444,0.001516092219,444,0.001070071128,444,0.002592852805,
443,0.0001166319489,443,-0.0006254721084,443,0.0003169339907,443,0.0003218818456,443,0.0004303861933,443,0.0007442376227,443,0.0005228228401,443,-0.0002663366904,443,-0.0002738389594,443,-0.0004874697479,443,0.0004954811302,443,4.139363591E-005,443,-0.001081100898,443,-0.001123601221,443,-0.001460512867,443,-0.001122310292,443,-0.001115958672,443,-0.0004018748587,443,0.001195634599,443,-5.259710088E-005,443,0.001741106971,443,0.001077700523,443,0.002535384148,
442,5.177502317E-005,442,-0.0005851979367,442,0.0002464007703,442,0.0003048624785,442,0.0004673895892,442,0.0007555434131,442,0.0005523434957,442,-0.0002738389594,442,-0.0002630253148,442,-0.0005707210512,442,0.0004741531739,442,-5.994776438E-005,442,-0.001117507927,442,-0.001226555556,442,-0.001691198326,442,-0.001318233437,442,-0.001290979912,442,-0.000384753861,442,0.001257183845,442,-0.0001061195071,442,0.001773517579,442,0.001043265802,442,0.002526974073,
441,-5.559949932E-005,441,-0.0007893220172,441,9.540026804E-005,441,0.0001566124556,441,0.0002527205797,441,0.0006733238697,441,0.0003243946412,441,-0.0005633790279,441,-0.0004602156696,441,-0.000670756679,441,0.0003000443394,441,-0.0001917209302,441,-0.001377018983,441,-0.001643699128,441,-0.001934286207,441,-0.001473928103,441,-0.001532125054,441,-0.0007908206899,441,0.001047573285,441,-0.00022307974,441,0.001314613386,441,0.0007704281015,441,0.002278053435,
440,8.408576832E-005,440,-0.0005493151257,440,0.0003767265298,440,0.0003815973469,440,0.0003983606002,440,0.0007925745449,440,0.0004467367544,440,-0.0003350422485,440,-0.0003344214638,440,-0.0006852818769,440,0.0002617083082,440,-0.000140589822,440,-0.001361381495,440,-0.001475166413,440,-0.001824849052,440,-0.001571382978,440,-0.00146912958,440,-0.0006271781167,440,0.001101808972,440,-0.0002131445217,440,0.001382619608,440,0.000785676355,440,0.002141562756,
439,0.0001887497201,439,-0.000539335655,439,0.0002700228069,439,0.0003985160729,439,0.0004444564402,439,0.0007129667792,439,0.0002833107719,439,-0.0004230812192,439,-0.0004738687712,439,-0.0007502000662,439,0.000157751856,439,-0.0002112298971,439,-0.001552399364,439,-0.001780612743,439,-0.002127061598,439,-0.001761174179,439,-0.00182809704,439,-0.0009940733435,439,0.0009221563814,439,-0.0002962415165,439,0.001512481482,439,0.0007261905121,439,0.002146245446,
438,4.683024235E-005,438,-0.0005318379845,438,0.0002171080996,438,0.0002862378024,438,0.0003177888575,438,0.0005874132039,438,0.0001268079795,438,-0.0004963127431,438,-0.0006022593006,438,-0.0008700354374,438,6.044794281E-005,438,-0.0003764776047,438,-0.001760245999,438,-0.002073117765,438,-0.002301469911,438,-0.001946243807,438,-0.00187506061,438,-0.001018246636,438,0.0007450933335,438,-0.0004508547718,438,0.001274266513,438,0.000584535941,438,0.00194340793,
437,3.404138261E-005,437,-0.0006265577395,437,0.0002452870249,437,0.0003752497432,437,0.0004238047113,437,0.0006542427,437,0.000313540455,437,-0.0005664296332,437,-0.0006428420893,437,-0.001049752347,437,-6.15007084E-005,437,-0.0005538652767,437,-0.001980980625,437,-0.002246620599,437,-0.002616936807,437,-0.002080743434,437,-0.002180071315,437,-0.001061372808,437,0.0006058434374,437,-0.0006013287348,437,0.001136611681,437,0.0003377101675,437,0.001715663471,
436,1.242528242E-006,436,-0.0006457369891,436,0.0001250990172,436,0.0003182810324,436,0.000365456508,436,0.0006047028583,436,0.0001511744777,436,-0.0007125218399,436,-0.0006710668094,436,-0.0009783704299,436,-0.0001793009724,436,-0.0006723591359,436,-0.002130616456,436,-0.002529444406,436,-0.003010074608,436,-0.002588786883,436,-0.002590330783,436,-0.001633951091,436,0.0002863932168,436,-0.000997637515,436,0.0008398793871,436,-9.892490198E-005,436,0.00130056683,
435,0.0001518218487,435,-0.0004845220246,435,0.0003174261656,435,0.0002632365213,435,0.0002509074984,435,0.0006713534822,435,0.0001643552241,435,-0.000865746988,435,-0.0007889602566,435,-0.001130778808,435,-0.0002473476343,435,-0.0007055957103,435,-0.002289882628,435,-0.002740682801,435,-0.003186441492,435,-0.002758842893,435,-0.002820519963,435,-0.001916349283,435,3.753481678E-006,435,-0.001297174022,435,0.0003768560709,435,-0.0003925644269,435,0.0008687990485,
434,0.0001090712831,434,-0.0004976572236,434,0.0002262764174,434,0.0003059763694,434,0.0002860305831,434,0.0005534320953,434,0.0001698192646,434,-0.0007027528482,434,-0.0009002603474,434,-0.001106663607,434,-0.0003912713146,434,-0.0008362430381,434,-0.002585647395,434,-0.003028686158,434,-0.003524684347,434,-0.003110680729,434,-0.003150824225,434,-0.002307392191,434,-0.0003416638938,434,-0.001649475656,434,0.0001209560869,434,-0.0009191692225,434,0.0004046826216,
433,2.847549877E-005,433,-0.0004670422932,433,0.0002095715899,433,0.000273260579,433,0.0003128410317,433,0.0004528521677,433,5.824733307E-005,433,-0.0008240998723,433,-0.0009417451802,433,-0.001375212683,433,-0.000490520848,433,-0.001119005377,433,-0.002756424947,433,-0.003397052176,433,-0.003832593095,433,-0.003636877052,433,-0.003670555074,433,-0.002889902564,433,-0.0009727915749,433,-0.00221808604,433,-0.0005218581064,433,-0.001661337912,433,-0.0004124264524,
432,4.90825696E-005,432,-0.0005283217761,432,2.668925299E-005,432,0.0001898115006,432,0.0001768889488,432,0.0003516478755,432,-0.0001056536712,432,-0.001038751449,432,-0.001170744305,432,-0.001471915864,432,-0.0008044634014,432,-0.001255774754,432,-0.003169738222,432,-0.003930340987,432,-0.004614884034,432,-0.004276259337,432,-0.004406810738,432,-0.003551438684,432,-0.00174725207,432,-0.003124559298,432,-0.001637922483,432,-0.002684088191,432,-0.001491006231,
431,0.0001581920806,431,-0.0003116587468,431,0.0003763379063,431,0.0003874268441,431,0.0003844214079,431,0.0004761226592,431,4.367182555E-005,431,-0.001050165505,431,-0.001135839266,431,-0.001395081519,431,-0.0007751620724,431,-0.001280759345,431,-0.003285568208,431,-0.00411982229,431,-0.004844924435,431,-0.004701342899,431,-0.004936763085,431,-0.003972255625,431,-0.002324797912,431,-0.003744113492,431,-0.002207166282,431,-0.003587330924,431,-0.002400438301,
430,8.866849385E-005,430,-0.0004414936702,430,0.0001931781735,430,0.0003317518276,430,0.0002298246545,430,0.0003414665698,430,-0.0001182310079,430,-0.001107128337,430,-0.001218346879,430,-0.001695220824,430,-0.0008700354374,430,-0.001510456903,430,-0.003679538844,430,-0.004616267048,430,-0.005521638785,430,-0.005360996351,430,-0.00574690802,430,-0.005137573462,430,-0.003385083051,430,-0.004811491352,430,-0.003534287214,430,-0.004486444872,430,-0.003693912411,
429,0.0001087346755,429,-0.0004228743201,429,0.0002788814018,429,0.000250881596,429,0.0002769387211,429,0.0003698349465,429,-0.0002191470849,429,-0.001047531492,429,-0.001296864357,429,-0.00179783348,429,-0.001098091248,429,-0.001686556963,429,-0.003989287186,429,-0.005146475974,429,-0.006179027725,429,-0.006316049956,429,-0.006655638106,429,-0.006169125903,429,-0.004633375909,429,-0.006194339599,429,-0.004432280548,429,-0.005985388067,429,-0.005180906504,
428,0.0001737036946,428,-0.0004136160715,428,0.0003011841036,428,0.0003312077897,428,0.0002849426528,428,0.0003886704799,428,-0.0001616536756,428,-0.00120585307,428,-0.00141510414,428,-0.001799638034,428,-0.001234764,428,-0.001726213493,428,-0.004293688573,428,-0.005547861103,428,-0.006748776883,428,-0.007041267119,428,-0.007549293339,428,-0.007310906891,428,-0.005784407258,428,-0.007405432407,428,-0.006181222387,428,-0.007882784121,428,-0.006773549598,
427,1.920781324E-005,427,-0.000520203379,427,0.0001750762021,427,0.0002124981256,427,0.0001909768907,427,0.0002770941355,427,-0.0003897712741,427,-0.001365613542,427,-0.001596039976,427,-0.001976548461,427,-0.001484814798,427,-0.002156941453,427,-0.004728639033,427,-0.006000962108,427,-0.007660960313,427,-0.008068871684,427,-0.008729878813,427,-0.008551586419,427,-0.007146036718,427,-0.00899659656,427,-0.007968238555,427,-0.009599784389,427,-0.008616354316,
426,0.00014879214,426,-0.0004410282127,426,0.00032672612,426,0.000348072761,426,0.0002499491675,426,0.0003975574218,426,-0.0003113483544,426,-0.001331446692,426,-0.00155420485,426,-0.00199953327,426,-0.001497610239,426,-0.002052455675,426,-0.004957442172,426,-0.006411710288,426,-0.008127970621,426,-0.008872337639,426,-0.009861615486,426,-0.009746412747,426,-0.008609502576,426,-0.01066147164,426,-0.009657409042,426,-0.01136404183,426,-0.01051222067,
425,0.0001128774893,425,-0.0004272189108,425,0.0002132750815,425,0.0002152951784,425,0.000244458206,425,0.0003214673488,425,-0.0003201431828,425,-0.001351110986,425,-0.001550232642,425,-0.002007933334,425,-0.001563387224,425,-0.002317176433,425,-0.005094133783,425,-0.006890358869,425,-0.008832618594,425,-0.009781746194,425,-0.01078299712,425,-0.01116871461,425,-0.01009349804,425,-0.0122703677,425,-0.01134008449,425,-0.0132257808,425,-0.01253803913,
424,0.0002305757516,424,-0.0004015645245,424,0.0003155092127,424,0.0003036190756,424,0.0002519953414,424,0.0003802241699,424,-0.000234360079,424,-0.00123879069,424,-0.001545744599,424,-0.002017569961,424,-0.001506639062,424,-0.002237761859,424,-0.005373883061,424,-0.0072126952,424,-0.009334500879,424,-0.01056916825,424,-0.01180094108,424,-0.01218011696,424,-0.01167052705,424,-0.01393409539,424,-0.01296848245,424,-0.01508802362,424,-0.0143481316,
423,0.000189008686,423,-0.0003050366358,423,0.000302272063,423,0.0004896501778,423,0.0003238506324,423,0.0004192443448,423,-0.000176247675,423,-0.001115184161,423,-0.001588250976,423,-0.001959901769,423,-0.001491934876,423,-0.002182801487,423,-0.005408602301,423,-0.007363542449,423,-0.009713456035,423,-0.01115837041,423,-0.01259547565,423,-0.0133402152,423,-0.01271143369,423,-0.0152388094,423,-0.01461938117,423,-0.01654061303,423,-0.01609683596,
422,0.0002059976105,422,-0.0003890988301,422,0.000301520864,422,0.0003553784918,422,0.0002612938988,422,0.0003350418701,422,-0.0002566611802,422,-0.001312091248,422,-0.001494772616,422,-0.001966447104,422,-0.001528874971,422,-0.002295444487,422,-0.00546821719,422,-0.007505127694,422,-0.01020790078,422,-0.01185474731,422,-0.01349401847,422,-0.01426402293,422,-0.01398337726,422,-0.01657599583,422,-0.01608326472,422,-0.01853956096,422,-0.01764405146,
421,0.0001148971278,421,-0.0001206636225,421,0.0004023766378,421,0.0003925050551,421,0.0003542644845,421,0.0005072728381,421,-0.0002441395918,421,-0.001176681952,421,-0.001484918059,421,-0.001919338829,421,-0.001474444056,421,-0.002100786194,421,-0.005472920369,421,-0.007577683311,421,-0.01031013951,421,-0.01215927582,421,-0.0141378548,421,-0.01514392439,421,-0.01486554742,421,-0.01763908006,421,-0.01704795845,421,-0.01924902573,421,-0.0189261362,
420,0.0001801001345,420,-0.0006421700236,420,0.0004666640016,420,0.0005065212608,420,0.0005360667128,420,0.000544878887,420,-1.206269371E-005,420,-0.001065556076,420,-0.001244572573,420,-0.001692384481,420,-0.001222890103,420,-0.002017518273,420,-0.00530300336,420,-0.007451898418,420,-0.01036175527,420,-0.01222431287,420,-0.01422975399,420,-0.01550450828,420,-0.01531653199,420,-0.01826335303,420,-0.01783027686,420,-0.02037446387,420,-0.01957311109,
419,0.0001549292647,419,0.0004340915766,419,0.0004338842991,419,0.0005662621697,419,0.000426318089,419,0.0006211117725,419,5.314714508E-005,419,-0.0009673160384,419,-0.00123879069,419,-0.001693261205,419,-0.001232079463,419,-0.001905988785,419,-0.005109791178,419,-0.007448743097,419,-0.01034992654,419,-0.01235441025,419,-0.0143896034,419,-0.01574433222,419,-0.01569944434,419,-0.0186395105,419,-0.01809087023,419,-0.02060835436,419,-0.02002655342,
418,0.0001405317744,418,-0.0004064265522,418,0.0003973242128,418,0.0005013899063,418,0.0004990833695,418,0.0006472429959,418,0.0001252025831,418,-0.0007823454798,418,-0.001153292134,418,-0.001422689762,418,-0.0009701570962,418,-0.001710382174,418,-0.004830998369,418,-0.007053645328,418,-0.009997026064,418,-0.01217694581,418,-0.01422649715,418,-0.01568675973,418,-0.01554272324,418,-0.01882055216,418,-0.01843532175,418,-0.02075284533,418,-0.02026493102,
417,0.0002519435366,417,-0.0004574746708,417,0.0005329047563,417,0.0005766820395,417,0.0005290430272,417,0.0007373142871,417,0.0003601713688,417,-0.0006787688471,417,-0.0008516928065,417,-0.001266099163,417,-0.000811336271,417,-0.001476869103,417,-0.004447449464,417,-0.006664662156,417,-0.009543417953,417,-0.01162587106,417,-0.01383807138,417,-0.01528399531,417,-0.01526385266,417,-0.01841299236,417,-0.01846459694,417,-0.02081117965,417,-0.01982212625,
416,0.0002805909899,416,-1.760210216E-005,416,0.0004819534079,416,0.0005197905703,416,0.0006522723706,416,0.000853859121,416,0.0003516478755,416,-0.0004987432039,416,-0.0007305602776,416,-0.001173429191,416,-0.0005999844871,416,-0.001186130568,416,-0.004057047423,416,-0.006245222408,416,-0.008905155584,416,-0.0111150248,416,-0.01324471273,416,-0.01466017682,416,-0.01469816547,416,-0.01793173142,416,-0.01746321656,416,-0.01994571276,416,-0.01918998547,
415,0.0002170821972,415,-0.0003889436484,415,0.0003521660401,415,0.0006167308311,415,0.0005262439372,415,0.0008619515575,415,0.0004664307926,415,-0.0005137912813,415,-0.0007192927878,415,-0.0009863768937,415,-0.000415840128,415,-0.001054452267,415,-0.003832593095,415,-0.005816233344,415,-0.00852122996,415,-0.0104662329,415,-0.0126526542,415,-0.0139175998,415,-0.01414381899,415,-0.0171302855,415,-0.01673528366,415,-0.01881911419,415,-0.01822592318,
414,0.0001478081394,414,-0.0002869288146,414,0.0004546919954,414,0.0006124276551,414,0.0006240670336,414,0.0008917286759,414,0.0004863330396,414,-0.0004002714122,414,-0.0006014321116,414,-0.0008699321188,414,-0.0002430529858,414,-0.0006778901443,414,-0.003244717605,414,-0.005020701326,414,-0.007760799956,414,-0.009621103294,414,-0.01169134118,414,-0.01290586777,414,-0.01301541273,414,-0.0159817785,414,-0.01581527479,414,-0.01763361134,414,-0.01707319543,
413,0.0003198353224,413,-0.0003325073631,413,0.000563307316,413,0.000550425495,413,0.0007365363999,413,0.001003670623,413,0.0007155855419,413,-8.758928016E-005,413,-0.0003341627889,413,-0.0006277467473,413,9.855906683E-005,413,-0.0004973469768,413,-0.002761878073,413,-0.004463744815,413,-0.006927147973,413,-0.008907641284,413,-0.01072148141,413,-0.01193866879,413,-0.0118601881,413,-0.01497069746,413,-0.01467634365,413,-0.01651793718,413,-0.01574318297,
412,0.0001801001345,412,-9.405942546E-005,412,0.0005462007248,412,0.0007518612547,412,0.0006972284173,412,0.001187458169,412,0.0008278192836,412,-6.093129559E-005,412,-9.716505156E-005,412,-0.0002157318377,412,0.0003621403303,412,-0.0001652763458,412,-0.002274638508,412,-0.003752325894,412,-0.006165348925,412,-0.00769015681,412,-0.009672952816,412,-0.01093760785,412,-0.01060640533,412,-0.01360165793,412,-0.01322206482,412,-0.01490767114,412,-0.01413970906,
411,-7.314758841E-005,411,-0.0002869805612,411,0.0004602892732,411,0.0005988703924,411,0.0006985507207,411,0.001075572567,411,0.0009280709783,411,0.000120619472,411,5.151613368E-005,411,-0.0002451227047,411,0.0005758784828,411,3.673374158E-005,411,-0.001842171187,411,-0.003002516693,411,-0.005272163078,411,-0.006919250358,411,-0.008570672944,411,-0.009500113316,411,-0.009391197935,411,-0.01234228257,411,-0.01175125875,411,-0.01339604054,411,-0.01249603741,
410,0.0002275454899,410,-0.0001189038594,410,0.0005362222437,410,0.0007914853632,410,0.0008184566977,410,0.001300462987,410,0.001041319687,410,0.0001808252418,410,0.0002744779922,410,5.247402805E-005,410,0.0008288566605,410,0.0004612480698,410,-0.001227536355,410,-0.002415060299,410,-0.004362170119,410,-0.005708383396,410,-0.007283314131,410,-0.008222064003,410,-0.00791887939,410,-0.01082056947,410,-0.01018170454,410,-0.01165394578,410,-0.01073314901,
409,0.0001182114211,409,-0.0001734531106,409,0.000550762401,409,0.0008206611383,409,0.0007833942655,409,0.001410666504,409,0.001172559103,409,0.0003380210546,409,0.0004733757232,409,0.0001915725297,409,0.001015709713,409,0.000845170347,409,-0.0007768674986,409,-0.001745292684,409,-0.003515954129,409,-0.004755217116,409,-0.006311865989,409,-0.007024049293,409,-0.006749286782,409,-0.009542861022,409,-0.00875621289,409,-0.01015130989,409,-0.009161627851,
408,-0.0003264029219,408,-0.0001515617769,408,0.000580984808,408,0.0006959320744,408,0.0008928440511,408,0.001390150515,408,0.001192467869,408,0.0004577756627,408,0.0006326736184,408,0.0003695499618,408,0.001328141079,408,0.001053359825,408,-0.0003251613234,408,-0.001099795336,408,-0.002595013939,408,-0.003877544543,408,-0.005208070856,408,-0.005894894246,408,-0.005405943375,408,-0.008128072135,408,-0.007331269793,408,-0.008568286896,408,-0.007572290488,
407,0.0004240378912,407,-0.0001478872437,407,0.0006342549459,407,0.000939251855,407,0.0009505886701,407,0.001571997302,407,0.001385839656,407,0.0007063291268,407,0.0008537553949,407,0.0006932356046,407,0.001587689389,407,0.001397525775,407,0.0002279339824,407,-0.0004447002721,407,-0.001875576098,407,-0.002786570461,407,-0.004016885068,407,-0.004555920139,407,-0.004068690352,407,-0.006678172853,407,-0.005689835176,407,-0.007119859569,407,-0.005737813655,
406,0.000219905196,406,-0.000254022365,406,0.0004072477459,406,0.0007043845253,406,0.0008305943338,406,0.001370855956,406,0.001382022281,406,0.0004806317738,406,0.0007481531356,406,0.000610794581,406,0.001623648219,406,0.001409575692,406,0.0004093723837,406,6.259678048E-005,406,-0.001278075157,406,-0.001938667265,406,-0.003117620014,406,-0.003553287126,406,-0.003003956284,406,-0.005350871477,406,-0.004381646402,406,-0.005699492525,406,-0.004468407948,
405,0.0002178073773,405,-0.0001801289764,405,0.000563255453,405,0.0008957233513,405,0.0008790965076,405,0.001640693401,405,0.001610994688,405,0.0009239722858,405,0.00100730313,405,0.0008880712558,405,0.001936049317,405,0.001753868186,405,0.001035403577,405,0.0007331655361,405,-0.0003283170226,405,-0.00106679555,405,-0.002054156037,405,-0.002391582588,405,-0.001776951947,405,-0.004204328638,405,-0.003145992989,405,-0.004269697238,405,-0.002979122102,
404,0.0001627755846,404,-0.0001887712278,404,0.000539643399,404,0.0009490061784,404,0.0009351789486,404,0.001576283947,404,0.001559215365,404,0.0008636633866,404,0.001080139889,404,0.00112259679,404,0.002043137327,404,0.001920526614,404,0.00125471747,404,0.001254795352,404,0.0001432506833,404,-0.0003034845868,404,-0.001264653751,404,-0.001590365893,404,-0.0007476676255,404,-0.003096030792,404,-0.001948202378,404,-0.002877148101,404,-0.001644782256,
403,0.0002962623839,403,-0.000198241265,403,0.0004518156638,403,0.0007229493349,403,0.0008649603114,403,0.001693443977,403,0.001711531426,403,0.001018667594,403,0.001298385905,403,0.001110814279,403,0.002289893571,403,0.002081891056,403,0.00175345235,403,0.001699083252,403,0.00097339286,403,0.0004677523975,403,-0.0002167150233,403,-0.0005651370157,403,0.0003255862975,403,-0.002042665379,403,-0.0007918542251,403,-0.00165391108,403,-0.0003104171192,
402,-2.516043241E-005,402,-0.0002284612274,402,0.0004883803194,402,0.0007411778788,402,0.0009049578803,402,0.001577401068,402,0.001694041654,402,0.001004215563,402,0.001279978198,402,0.001265075989,402,0.00232049753,402,0.002360993763,402,0.002047662623,402,0.002317348495,402,0.001444480964,402,0.001321104472,402,0.000374757481,402,0.0004036721366,402,0.001326271566,402,-0.001017161878,402,0.0003131259873,402,-0.0006068606162,402,0.0009414309752,
401,8.553566295E-005,401,-0.0002976383839,401,0.0004441973288,401,0.0006943764165,401,0.0008205574122,401,0.001655400498,401,0.001747084665,401,0.001105234609,401,0.00144590938,401,0.001276057912,401,0.002444392536,401,0.002467561746,401,0.00237143063,401,0.002564234659,401,0.00207291753,401,0.00177627278,401,0.001109672477,401,0.001208769158,401,0.002010680502,401,-0.0001182827691,401,0.001287117833,401,0.0004264994932,401,0.001833823044,
400,0.0003799650876,400,-0.0002516939712,400,0.0004726501356,400,0.0008667499642,400,0.001025050529,400,0.001787709421,400,0.001856621704,400,0.001277979114,400,0.00152476842,400,0.001523079933,400,0.002844663803,400,0.002788751153,400,0.002750898246,400,0.003171165008,400,0.002568739466,400,0.002467639744,400,0.00185851939,400,0.002157639712,400,0.002893104916,400,0.0008720931946,400,0.002426612889,400,0.001399992849,400,0.00296195806,
399,0.0001785463392,399,-0.0001668289042,399,0.0005619595177,399,0.000822761911,399,0.001040022355,399,0.00185641367,399,0.001978486078,399,0.00140877068,399,0.001723590074,399,0.001656102133,399,0.002815091284,399,0.002982209669,399,0.003075008513,399,0.003513047239,399,0.003263013205,399,0.003300441429,399,0.00260889437,399,0.002907124814,399,0.003798738122,399,0.00182547851,399,0.003246269422,399,0.002449911321,399,0.003987370059,
398,-1.848218744E-005,398,-0.0002603348112,398,0.0005489481264,398,0.0008252775879,398,0.001070045284,398,0.001934541273,398,0.001952092629,398,0.001450662385,398,0.001838918193,398,0.001863718848,398,0.002988751745,398,0.00317035662,398,0.00343280891,398,0.003955002874,398,0.00381046324,398,0.003756906604,398,0.003312492045,398,0.003498981707,398,0.00452843681,398,0.002505728276,398,0.004161264747,398,0.003417545697,398,0.004915344529,
397,7.939952047E-005,397,-0.0001952916064,397,0.000578185427,397,0.0008704331703,397,0.001063376199,397,0.001783030806,397,0.002026960487,397,0.001554643037,397,0.001844039303,397,0.001811207505,397,0.003085228149,397,0.003181047738,397,0.003440740751,397,0.004176502116,397,0.003919764422,397,0.004087544046,397,0.003696098691,397,0.004008348566,397,0.005082827993,397,0.003087053075,397,0.004659687635,397,0.004005004652,397,0.005571926478,
396,0.0002243857598,396,-0.0002696998126,396,0.0005500367261,396,0.0008523548022,396,0.001065659686,396,0.001931135077,396,0.002219221322,396,0.001489519142,396,0.001880981377,396,0.001991956495,396,0.003231325652,396,0.003331455635,396,0.003863060381,396,0.0045125857,396,0.00437816279,396,0.004643544089,396,0.004140017554,396,0.004534478765,396,0.005742365494,396,0.003733981866,396,0.005494059529,396,0.004735049792,396,0.006499039941,
395,0.0001830264664,395,-0.0001450925047,395,0.0006328551099,395,0.0008897054358,395,0.001083331765,395,0.001964288065,395,0.002217452042,395,0.001744927489,395,0.002063267864,395,0.002075388329,395,0.00341751962,395,0.003555821255,395,0.004083205946,395,0.004885211587,395,0.005008033942,395,0.005243564025,395,0.004842044786,395,0.005257319193,395,0.006655990146,395,0.004601578694,395,0.006355621386,395,0.005846092943,395,0.007490048651,
394,0.0001848392567,394,-0.0001586520084,394,0.0006647683331,394,0.0008813790628,394,0.001051076339,394,0.001947178156,394,0.00238545984,394,0.001740067382,394,0.002085558372,394,0.002112792339,394,0.003289590823,394,0.003440010129,394,0.004359728657,394,0.004989285022,394,0.005193759687,394,0.005530343391,394,0.005318922922,394,0.005907596555,394,0.006985607091,394,0.004972526804,394,0.00674079638,394,0.006350236945,394,0.00802178774,
393,0.0001493359305,393,-0.000245070958,393,0.0005721459747,393,0.0009360869299,393,0.00109194743,393,0.001963767922,393,0.002120336052,393,0.001626324491,393,0.002081162762,393,0.002101113088,393,0.003542824183,393,0.003645636374,393,0.004301633686,393,0.00518956827,393,0.005414057057,393,0.00570546044,393,0.005491569173,393,0.006164724473,393,0.007274276577,393,0.005623793229,393,0.007336535491,393,0.006800585892,393,0.008593517356,
392,0.0003193949524,392,-5.125119424E-005,392,0.0005034113419,392,0.0008829094586,392,0.001153559773,392,0.002168930368,392,0.002281956607,392,0.001784252352,392,0.002192500979,392,0.00230168202,392,0.003463336965,392,0.003685420845,392,0.004626354203,392,0.005509369541,392,0.005639134441,392,0.00606932072,392,0.005941553041,392,0.006623186637,392,0.0079378644,392,0.006181160919,392,0.007898795418,392,0.007503111847,392,0.009383006021,
391,7.693991211E-005,391,-0.0001768686925,391,0.0005879316013,391,0.0009170201374,391,0.001117977197,391,0.002037051367,391,0.002260904992,391,0.001774531323,391,0.002146817744,391,0.002314147539,391,0.003701659618,391,0.003764087101,391,0.004628395196,391,0.005540358834,391,0.005829459522,391,0.00635486003,391,0.00628725253,391,0.00699144695,391,0.008295184001,391,0.006617956329,391,0.008496575989,391,0.008146238513,391,0.01003242191,
390,0.0001952240709,390,-0.0001500609214,390,0.0006132571725,390,0.0009514188278,390,0.001168613904,390,0.00203920994,390,0.002233635867,390,0.001786955632,390,0.00218820828,390,0.002181652235,390,0.003576883348,390,0.00381743582,390,0.004500449169,390,0.005777961574,390,0.006165538449,390,0.006675494369,390,0.006757990923,390,0.007334850729,390,0.008785775863,390,0.007171154488,390,0.009024078026,390,0.008718502708,390,0.01052776631,
389,0.000241168862,389,-0.0001115541963,389,0.0006736868527,389,0.0009128955426,389,0.001150678843,389,0.002086182591,389,0.002342827152,389,0.00180320139,389,0.002180923708,389,0.002247998724,389,0.003699153196,389,0.00395651767,389,0.00478590047,389,0.005915862508,389,0.006240794901,389,0.006901726127,389,0.006962116808,389,0.007736257277,389,0.009128962643,389,0.007518413942,389,0.009480675682,389,0.009036737494,389,0.01094556972,
388,-8.801140211E-006,388,-0.0003039501898,388,0.0004061076907,388,0.0007043067017,388,0.0008379341452,388,0.001904094592,388,0.002289399039,388,0.001567087136,388,0.00207835366,388,0.002151942579,388,0.003506001318,388,0.003688527737,388,0.004603933077,388,0.005656652618,388,0.006023726426,388,0.006685483735,388,0.006764668971,388,0.007452126127,388,0.009093090892,388,0.007535244338,388,0.009575693868,388,0.009216448292,388,0.01114022639,
387,1.063926356E-005,387,-0.0001588072628,387,0.0005592898233,387,0.0008693177951,387,0.001049623243,387,0.00202259142,387,0.002242170274,387,0.001695522922,387,0.00226028054,387,0.002250054386,387,0.003462945577,387,0.003818010446,387,0.004577798303,387,0.005837750155,387,0.006248804275,387,0.006892389618,387,0.006940994877,387,0.007861021906,387,0.009466203861,387,0.007870879956,387,0.009934840724,387,0.009769685566,387,0.01158549637,
386,0.0004095537588,386,-0.0001532696624,386,0.000650068745,386,0.00100585015,386,0.001105961273,386,0.002182666678,386,0.002357818419,386,0.002014711499,386,0.002270090627,386,0.002290440025,386,0.003602044657,386,0.003872436471,386,0.004564273637,386,0.005772164091,386,0.006357749458,386,0.007108445745,386,0.007344328333,386,0.008096944541,386,0.009824438952,386,0.008136453107,386,0.01026239712,386,0.01014709007,386,0.01213949919,
385,0.0001441311033,385,-0.0002164045436,385,0.0005431682803,385,0.0009072146495,385,0.0011807353,385,0.00209385599,385,0.002319872845,385,0.001798002631,385,0.002224841388,385,0.002307277173,385,0.003592178226,385,0.003813623218,385,0.004777970258,385,0.005786198657,385,0.006432592403,385,0.007207078859,385,0.007350383792,385,0.008364317939,385,0.009907562286,385,0.008487969637,385,0.01063420903,385,0.0105037922,385,0.01231349446,
384,0.0001277142583,384,-0.0001743328903,384,0.0004900647909,384,0.0008441069513,384,0.0009963280754,384,0.001959477551,384,0.002229837002,384,0.001768761082,384,0.002085324377,384,0.002055829391,384,0.003513491014,384,0.003681792179,384,0.004697262309,384,0.005826153792,384,0.006239849608,384,0.007141522598,384,0.007228002883,384,0.008293416351,384,0.009836671874,384,0.008588501252,384,0.01066983677,384,0.01034886483,384,0.01243286859,
383,-5.834305193E-005,383,-0.0002657158184,383,0.0004861257039,383,0.0008490089676,383,0.0009972101543,383,0.001997131389,383,0.002235639375,383,0.001694301609,383,0.002058560262,383,0.002204599092,383,0.003328012535,383,0.003588028252,383,0.004374475684,383,0.005575675983,383,0.006161547732,383,0.006895414088,383,0.007036564406,383,0.00820899196,383,0.009864078835,383,0.0085253492,383,0.0105294371,383,0.0104474416,383,0.01243880857,
382,0.0002016726212,382,-0.0001472144359,382,0.0005627889186,382,0.0007728397613,382,0.00108068483,382,0.001948790392,382,0.002184149809,382,0.001693755854,382,0.00205712975,382,0.002196325688,382,0.003454491496,382,0.003578814678,382,0.004375522025,382,0.005669345614,382,0.006141514983,382,0.006928395946,382,0.007048797794,382,0.008115142584,382,0.009854386561,382,0.008554785512,382,0.01074720453,382,0.01054962073,382,0.01256549079,
381,0.0002732864814,381,-0.0001995867206,381,0.0005482742563,381,0.0008374154568,381,0.001058575581,381,0.00192146271,381,0.002252162201,381,0.00162279082,381,0.001986599527,381,0.001921852701,381,0.003191817319,381,0.003445046023,381,0.004254185595,381,0.005383863579,381,0.005893767811,381,0.006725863088,381,0.007002179977,381,0.00797021389,381,0.009848693386,381,0.008477490395,381,0.01064816304,381,0.01068976149,381,0.01271617319,
380,2.583496462E-005,380,-0.0003098997695,380,0.0004067295231,380,0.0007255163509,380,0.0008191050729,380,0.001707997057,380,0.002008157782,380,0.001463545021,380,0.001827298198,380,0.001875625807,380,0.003120424692,380,0.003201466054,380,0.004155306146,380,0.00526735466,380,0.005761199165,380,0.006537063513,380,0.006898806896,380,0.008017885499,380,0.009775563143,380,0.008513919078,380,0.01073709503,380,0.0104932636,380,0.01259672083,
379,4.965212429E-005,379,-0.0002722867939,379,0.0003655083128,379,0.0006934948615,379,0.0009061251767,379,0.001874637906,379,0.002135423478,379,0.001594964066,379,0.001998587744,379,0.001985273324,379,0.003210202092,379,0.003466885537,379,0.004270549864,379,0.005316013936,379,0.005731873214,379,0.00681049889,379,0.007027750835,379,0.007984293625,379,0.009826477617,379,0.008341993205,379,0.01079496928,379,0.01045478601,379,0.01258459687,
378,1.263253671E-005,378,-0.0003877539712,378,0.0003711821628,378,0.0009080187883,378,0.0009922805475,378,0.001902690507,378,0.002025244059,378,0.001606447855,378,0.001920552691,378,0.001920474693,378,0.003001627978,378,0.003460049164,378,0.004017518833,378,0.005049907602,378,0.005575571209,378,0.006418116856,378,0.006600294262,378,0.00786745362,378,0.009458902292,378,0.008192795329,378,0.01037611905,378,0.01019142289,378,0.01235258952,
377,0.0001756718266,377,-0.0001089662546,377,0.0004849854449,377,0.0006796499365,377,0.001019264339,377,0.001872220077,377,0.001986469375,377,0.001318585942,377,0.001903522527,377,0.001986391377,377,0.003143916838,377,0.003240922932,377,0.003990295809,377,0.004920371342,377,0.005493954755,377,0.006243499927,377,0.006611043587,377,0.007595669944,377,0.009428848512,377,0.008211920038,377,0.01039191987,377,0.01026836131,377,0.01231546514,
376,5.495938967E-005,376,-0.0001544599945,376,0.0005743750953,376,0.000919899554,376,0.001132666715,376,0.001944525982,376,0.002137764823,376,0.001794363605,376,0.001874715905,376,0.001813157112,376,0.002948744223,376,0.003235081211,376,0.003632036271,376,0.004793988075,376,0.00521458732,376,0.006039711181,376,0.006258783862,376,0.00757096149,376,0.009174170904,376,0.008021998219,376,0.01030075178,376,0.01026905049,376,0.01224260963,
375,9.255219629E-005,375,-0.0002887913724,375,0.000513078121,375,0.0007774038822,375,0.0008440032252,375,0.001706021954,375,0.001953860745,375,0.001240075799,375,0.00155256479,375,0.001877185656,375,0.002837420208,375,0.003063433571,375,0.003616531147,375,0.004544680472,375,0.005106583703,375,0.005930426531,375,0.006107621361,375,0.007276277058,375,0.009200424887,375,0.007988960482,375,0.01026494242,375,0.009927690029,375,0.01197677664,
374,6.01372667E-005,374,-0.0001382090704,374,0.0006370028714,374,0.0008838691865,374,0.001054216176,374,0.001856621704,374,0.001953574829,374,0.001509468304,374,0.001849290566,374,0.001849784516,374,0.002988308668,374,0.003213200951,374,0.003642947646,374,0.004643701017,374,0.005188100971,374,0.005969213787,374,0.006171945017,374,0.007213816512,374,0.009202328511,374,0.007921335287,374,0.01003350783,374,0.009987521917,374,0.0119336443,
373,0.0001282580197,373,-0.0003139868204,373,0.0005334489979,373,0.0006860797293,373,0.0009342450649,373,0.00176946295,373,0.001896008733,373,0.001411341713,373,0.001578466268,373,0.001786851673,373,0.002853809623,373,0.003003947902,373,0.003411597107,373,0.004449501168,373,0.004785743542,373,0.005648863502,373,0.005847483873,373,0.006894283462,373,0.008795232512,373,0.007569934241,373,0.00974408444,373,0.009427685291,373,0.01158193406,
372,5.902401972E-005,372,-0.0002118508564,372,0.0004574128834,372,0.0008347959374,372,0.0006585980882,372,0.001858233474,372,0.002049795352,372,0.001385190408,372,0.00164399331,372,0.001678397763,372,0.002842709655,372,0.002918877872,372,0.003275427967,372,0.004221066367,372,0.004508792888,372,0.005197086837,372,0.005544999149,372,0.006613645703,372,0.008510882966,372,0.007217632607,372,0.009495782666,372,0.009315084666,372,0.01133653894,
371,0.0003070384264,371,-0.000165172838,371,0.0004724687315,371,0.0007706096512,371,0.001010027481,371,0.001690637437,371,0.001825946383,371,0.001226836466,371,0.001531054964,371,0.001591586508,371,0.002651084214,371,0.002880101558,371,0.003218077589,371,0.004029484931,371,0.004354107194,371,0.005024793092,371,0.005260175094,371,0.006433275528,371,0.008324947208,371,0.007052165456,371,0.009383350611,371,0.009053785354,371,0.01116742287,
370,0.0002033818892,370,1.90266037E-005,370,0.0005812181043,370,0.0009119357564,370,0.001215466415,370,0.001915638568,370,0.001973077189,370,0.001256482792,370,0.001708542695,370,0.001738975756,370,0.002700102748,370,0.002968578134,370,0.003126604017,370,0.003917126451,370,0.004250682425,370,0.004970798735,370,0.005309148692,370,0.006503428333,370,0.008294286206,370,0.007133654319,370,0.009414378554,370,0.009047019295,370,0.01110633928,
369,0.0003450675867,369,-0.0002254600258,369,0.000537414453,369,0.0008202721365,369,0.001120624365,369,0.001689416007,369,0.0018601052,369,0.001276758849,369,0.001587663312,369,0.001662598341,369,0.002575457795,369,0.002845419571,369,0.003155467799,369,0.00395526411,369,0.004073067568,369,0.004888300784,369,0.005150536075,369,0.006227927282,369,0.008039718494,369,0.006793223321,369,0.008918346837,369,0.008720668033,369,0.01093062386,
368,0.0001029865889,368,-0.0002300653141,368,0.0005940489937,368,0.0007495534373,368,0.0003942409821,368,0.001689883764,368,0.001736558741,368,0.001321442076,368,0.001496402547,368,0.001539757475,368,0.002566760406,368,0.002693304326,368,0.002897508908,368,0.003579937154,368,0.003872488625,368,0.004650503863,368,0.004766245373,368,0.005825760309,368,0.007699578069,368,0.006346506998,368,0.008704346605,368,0.008339988068,368,0.01034822874,
367,0.0003398085828,367,-0.0002182673925,367,0.0005471597542,367,0.0006912651588,367,0.0008173414972,367,0.00174763042,367,0.001870816224,367,0.001196024008,367,0.001397473738,367,0.001410874189,367,0.002409927314,367,0.002576629398,367,0.00269796676,367,0.003425894771,367,0.00346422405,367,0.004157972056,367,0.00434265472,367,0.005568046123,367,0.007203894202,367,0.00613636896,367,0.008207303472,367,0.007938813418,367,0.01001435518,
366,7.057088078E-005,366,-0.0002358089114,366,0.0004720541183,366,0.0008255110006,366,0.0008766842075,366,0.001618503593,366,0.001619101269,366,0.001018044888,366,0.001324272249,366,0.001376776723,366,0.002229446778,366,0.002364377258,366,0.002558011329,366,0.003227700712,366,0.003243400715,366,0.00393151911,366,0.00411992101,366,0.005236175377,366,0.007150943391,366,0.005869234446,366,0.007977754809,366,0.007648885716,366,0.00982700754,
365,0.0002169268118,365,-0.0002633357653,365,0.0005473411875,365,0.0008608362405,365,0.0007551544695,365,0.001555760158,365,0.001665872522,365,0.001012180932,365,0.001318066614,365,0.001347251935,365,0.002297986764,365,0.002428721404,365,0.002559157088,365,0.003140787827,365,0.003241966246,365,0.003999439999,365,0.004069278948,365,0.005109281279,365,0.007006757427,365,0.005667273887,365,0.007899981923,365,0.007558871061,365,0.009633731097,
364,0.0001328412181,364,-0.0001234067604,364,0.0005093979416,364,0.000809950172,364,0.0007792450488,364,0.00164414919,364,0.001669406542,364,0.001085797092,364,0.001296153059,364,0.001432975405,364,0.002244173782,364,0.002429788699,364,0.002460324438,364,0.002961488906,364,0.003119564382,364,0.003622038756,364,0.003822084283,364,0.00479820231,364,0.006827354431,364,0.005372987129,364,0.007492814213,364,0.007252639625,364,0.009318258613,
363,0.0004507532285,363,4.44484831E-005,363,0.0006653128075,363,0.0008732344722,363,0.0009833036456,363,0.001624271856,363,0.001812923118,363,0.001195998047,363,0.001403187052,363,0.00138817681,363,0.00234306138,363,0.00240878202,363,0.002266083378,363,0.002860975219,363,0.002833069069,363,0.003407396609,363,0.00344637665,363,0.004644930828,363,0.006315749139,363,0.004999078345,363,0.00727801444,363,0.006974190474,363,0.008720721118,
362,0.0002405731502,362,-0.0002089530317,362,0.0004092428426,362,0.0007189821918,362,0.0008501242264,362,0.001607902814,362,0.001559708966,362,0.0009680743678,362,0.001074716216,362,0.001118574175,362,0.002034268575,362,0.002255414613,362,0.002127229469,362,0.002477740869,362,0.002567541553,362,0.003052145941,362,0.003204934299,362,0.004345897119,362,0.006013883743,362,0.004741225857,362,0.006778998766,362,0.006484614685,362,0.008634708822,
361,0.0004914642195,361,-0.0002470889303,361,0.000580051681,361,0.000748775492,361,0.0007657863316,361,0.001495311502,361,0.00158036279,361,0.0009270852315,361,0.001113175997,361,0.001079880283,361,0.001942003728,361,0.002097887686,361,0.001934385276,361,0.002431428758,361,0.002385407686,361,0.002888231771,361,0.002842136426,361,0.004177860916,361,0.005884321872,361,0.004565084353,361,0.006773660891,361,0.006388720125,361,0.008193480782,
360,-2.019100748E-006,360,-0.000145972328,360,0.0004937966005,360,0.0007616113289,360,0.0009115725989,360,0.001526586828,360,0.001564774895,360,0.0009880255675,360,0.001077155583,360,0.001169444411,360,0.002026336268,360,0.00205967878,360,0.001903288532,360,0.002488571219,360,0.002263949485,360,0.002783071715,360,0.002674759366,360,0.003748446703,360,0.005572870374,360,0.004282575101,360,0.00629502628,360,0.005955593195,360,0.007960116491,
359,0.0001208525136,359,-0.0001214917429,359,0.000576759805,359,0.0007950381842,359,0.0008579053101,359,0.00148073968,359,0.001600550022,359,0.0008698625024,359,0.001077674562,359,0.001138013089,359,0.00186720246,359,0.001975729596,359,0.001807620283,359,0.002103506122,359,0.002047298476,359,0.00251187291,359,0.002363622421,359,0.003431504359,359,0.005185272079,359,0.003863634774,359,0.005972284358,359,0.005612412468,359,0.007460421417,
358,0.0001383048657,358,-8.034261555E-005,358,0.0004953774624,358,0.0008382713422,358,0.0008219578885,358,0.001503727632,358,0.001510845032,358,0.0007840425824,358,0.000967711152,358,0.0009516782593,358,0.001806762535,358,0.00196418399,358,0.001581220189,358,0.00190516049,358,0.001784616266,358,0.002145672916,358,0.002209802624,358,0.003205690533,358,0.005099302158,358,0.003740404965,358,0.005878208205,358,0.005319656339,358,0.007312236354,
357,0.0002227540972,357,-0.0001259946148,357,0.000636173354,357,0.0008641302702,357,0.0008283639327,357,0.001555890078,357,0.001516222139,357,0.000873182551,357,0.000989945489,357,0.001006369013,357,0.001895592664,357,0.002112037968,357,0.001662234543,357,0.001825582469,357,0.001726370887,357,0.00213451311,357,0.002139091492,357,0.003059627488,357,0.004975328222,357,0.003468686016,357,0.005565528758,357,0.005087594502,357,0.007110471837,
356,0.0003264670668,356,-0.0001914104359,356,0.0006343327113,356,0.0008220616728,356,0.0008663350018,356,0.001655322616,356,0.001575946226,356,0.0007778706495,356,0.001149874181,356,0.001244566985,356,0.001942653791,356,0.001981190406,356,0.00162692205,356,0.001770008705,356,0.00170890661,356,0.002118359087,356,0.002046024194,356,0.002903684974,356,0.004747166764,356,0.003222067608,356,0.005358887371,356,0.004835422616,356,0.00673635304,
355,0.0002485764271,355,-0.0001775932033,355,0.0004246597819,355,0.0006696424098,355,0.0006926392671,355,0.001442559063,355,0.00128008204,355,0.0007492422592,355,0.001028423663,355,0.0008435363998,355,0.001699057175,355,0.001744719571,355,0.001261856756,355,0.001549421344,355,0.001264323131,355,0.001542199403,355,0.001664703246,355,0.002351702191,355,0.004323620815,355,0.002983304206,355,0.005004079547,355,0.00445711147,355,0.00650442671,
354,0.0001487662521,354,-0.0001490258292,354,0.000364912441,354,0.0007039696793,354,0.0008275339496,354,0.00151404005,354,0.001451545395,354,0.0007021806086,354,0.0009207556141,354,0.0007548432914,354,0.001702721464,354,0.001822099206,354,0.001290077693,354,0.001511572395,354,0.001235740492,354,0.001548434142,354,0.001488012611,354,0.002534290543,354,0.004083650187,354,0.002789767226,354,0.005010678433,354,0.004515750334,354,0.00647405209,
353,0.000251969439,353,-8.236134454E-005,353,0.0006046250928,353,0.0008962161955,353,0.0008355221362,353,0.001603563898,353,0.001560332486,353,0.0007807232323,353,0.0009023119928,353,0.0009656356997,353,0.001855659764,353,0.001782692852,353,0.001280705095,353,0.001606759615,353,0.001219801605,353,0.001565398416,353,0.00147673965,353,0.00237361691,353,0.004223549739,353,0.002702655271,353,0.004907018971,353,0.004147674888,353,0.006225590128,
352,9.609934932E-005,352,-0.0002436221548,352,0.0005833954201,352,0.0007269683992,352,0.000772917585,352,0.001387267956,352,0.001501337858,352,0.0006780943368,352,0.000893025659,352,0.0007728916244,352,0.001612423803,352,0.001620608266,352,0.001165343449,352,0.001239374862,352,0.0009283044492,352,0.001243840088,352,0.001018615672,352,0.00215821201,352,0.003868571017,352,0.002470815787,352,0.004459151533,352,0.003974438645,352,0.005901508965,
351,8.620882727E-005,351,-0.0001249594789,351,0.0003846804902,351,0.0006982655614,351,0.0007455601008,351,0.001299528289,351,0.001282859943,351,0.0005571903312,351,0.0007762368768,351,0.0008578015841,351,0.001559475088,351,0.001663923613,351,0.001185537316,351,0.001276888652,351,0.001049052342,351,0.001190027804,351,0.001109464793,351,0.002122442937,351,0.003942254931,351,0.00240672566,351,0.004465402104,351,0.004020288587,351,0.005925440229,
350,-1.987996802E-005,350,-0.0003668045392,350,0.0004380042956,350,0.0005593934911,350,0.0007001323393,350,0.00134501874,350,0.001266555861,350,0.0005955265369,350,0.0007871026755,350,0.0007441598573,350,0.001690169564,350,0.001647475176,350,0.001053255983,350,0.00127187802,350,0.0008528475882,350,0.001084862859,350,0.0008718856843,350,0.00185948133,350,0.003617523005,350,0.002195258858,350,0.004172241781,350,0.003680356313,350,0.005703257397,

0,
0
Collection Time: 27-Nov-18 08:54:00
Operator Name  :
Scan Version 6.0.0.1551
Parameter List :
Instrument  Cary 5000
Instrument Version  2.24
Method Log     :
Method Name    :
Date/Time stamp: 27-Nov-18 08:30:27
Method Modifications:
Storage Option Changed: 27-Nov-18 08:33:35, Old:1, New:0
X Start nm Changed: 27-Nov-18 08:33:35, Old:800.000, New:500.000
X Stop nm Changed: 27-Nov-18 08:33:35, Old:200.000, New:350.000
UVVIS Scan Rate nm Changed: 27-Nov-18 08:33:35, Old:  602.007, New:  600.000
NIR Scan Rate nm Changed: 27-Nov-18 08:33:35, Old:  602.007, New:  600.000
UVVIS Interval EV Changed: 27-Nov-18 08:33:35, Old:0.00015, New:0.00015
NIR Interval EV Changed: 27-Nov-18 08:33:35, Old:0.00015, New:0.00015
Common Interval EV Changed: 27-Nov-18 08:33:35, Old:0.00015, New:0.00015
Y min Changed: 27-Nov-18 08:33:35, Old:     0.00, New:    -0.05
Y max Changed: 27-Nov-18 08:33:35, Old:     1.00, New:     0.05
Baseline Correction Changed: 27-Nov-18 08:33:35, Old:0, New:2
Sipper Type Changed: 27-Nov-18 08:33:35, Old:Internal RSA, New:External sipper
End Method Modifications
<Current Wavelength> , 350.000
<SBW (nm)> , 2.00
<Energy> , 38.02
<Slit Height> , Full

2,
2
Collection Time: 27-Nov-18 08:56:15
Operator Name  :
Scan Version 6.0.0.1551
Parameter List :
Instrument  Cary 5000
Instrument Version  2.24
Method Log     :
Method Name    :
Date/Time stamp: 27-Nov-18 08:30:27
Method Modifications:
Storage Option Changed: 27-Nov-18 08:33:35, Old:1, New:0
X Start nm Changed: 27-Nov-18 08:33:35, Old:800.000, New:500.000
X Stop nm Changed: 27-Nov-18 08:33:35, Old:200.000, New:350.000
UVVIS Scan Rate nm Changed: 27-Nov-18 08:33:35, Old:  602.007, New:  600.000
NIR Scan Rate nm Changed: 27-Nov-18 08:33:35, Old:  602.007, New:  600.000
UVVIS Interval EV Changed: 27-Nov-18 08:33:35, Old:0.00015, New:0.00015
NIR Interval EV Changed: 27-Nov-18 08:33:35, Old:0.00015, New:0.00015
Common Interval EV Changed: 27-Nov-18 08:33:35, Old:0.00015, New:0.00015
Y min Changed: 27-Nov-18 08:33:35, Old:     0.00, New:    -0.05
Y max Changed: 27-Nov-18 08:33:35, Old:     1.00, New:     0.05
Baseline Correction Changed: 27-Nov-18 08:33:35, Old:0, New:2
Sipper Type Changed: 27-Nov-18 08:33:35, Old:Internal RSA, New:External sipper
End Method Modifications
<Current Wavelength> , 350.000
<SBW (nm)> , 2.00
<Energy> , 38.02
<Slit Height> , Full

6,
6
Collection Time: 27-Nov-18 09:00:45
Operator Name  :
Scan Version 6.0.0.1551
Parameter List :
Instrument  Cary 5000
Instrument Version  2.24
Method Log     :
Method Name    :
Date/Time stamp: 27-Nov-18 08:30:27
Method Modifications:
Storage Option Changed: 27-Nov-18 08:33:35, Old:1, New:0
X Start nm Changed: 27-Nov-18 08:33:35, Old:800.000, New:500.000
X Stop nm Changed: 27-Nov-18 08:33:35, Old:200.000, New:350.000
UVVIS Scan Rate nm Changed: 27-Nov-18 08:33:35, Old:  602.007, New:  600.000
NIR Scan Rate nm Changed: 27-Nov-18 08:33:35, Old:  602.007, New:  600.000
UVVIS Interval EV Changed: 27-Nov-18 08:33:35, Old:0.00015, New:0.00015
NIR Interval EV Changed: 27-Nov-18 08:33:35, Old:0.00015, New:0.00015
Common Interval EV Changed: 27-Nov-18 08:33:35, Old:0.00015, New:0.00015
Y min Changed: 27-Nov-18 08:33:35, Old:     0.00, New:    -0.05
Y max Changed: 27-Nov-18 08:33:35, Old:     1.00, New:     0.05
Baseline Correction Changed: 27-Nov-18 08:33:35, Old:0, New:2
Sipper Type Changed: 27-Nov-18 08:33:35, Old:Internal RSA, New:External sipper
End Method Modifications
<Current Wavelength> , 350.000
<SBW (nm)> , 2.00
<Energy> , 38.02
<Slit Height> , Full

12,
12
Collection Time: 27-Nov-18 09:02:49
Operator Name  :
Scan Version 6.0.0.1551
Parameter List :
Instrument  Cary 5000
Instrument Version  2.24
Method Log     :
Method Name    :
Date/Time stamp: 27-Nov-18 08:30:27
Method Modifications:
Storage Option Changed: 27-Nov-18 08:33:35, Old:1, New:0
X Start nm Changed: 27-Nov-18 08:33:35, Old:800.000, New:500.000
X Stop nm Changed: 27-Nov-18 08:33:35, Old:200.000, New:350.000
UVVIS Scan Rate nm Changed: 27-Nov-18 08:33:35, Old:  602.007, New:  600.000
NIR Scan Rate nm Changed: 27-Nov-18 08:33:35, Old:  602.007, New:  600.000
UVVIS Interval EV Changed: 27-Nov-18 08:33:35, Old:0.00015, New:0.00015
NIR Interval EV Changed: 27-Nov-18 08:33:35, Old:0.00015, New:0.00015
Common Interval EV Changed: 27-Nov-18 08:33:35, Old:0.00015, New:0.00015
Y min Changed: 27-Nov-18 08:33:35, Old:     0.00, New:    -0.05
Y max Changed: 27-Nov-18 08:33:35, Old:     1.00, New:     0.05
Baseline Correction Changed: 27-Nov-18 08:33:35, Old:0, New:2
Sipper Type Changed: 27-Nov-18 08:33:35, Old:Internal RSA, New:External sipper
End Method Modifications
<Current Wavelength> , 350.000
<SBW (nm)> , 2.00
<Energy> , 38.02
<Slit Height> , Full

20,
20
Collection Time: 27-Nov-18 09:05:38
Operator Name  :
Scan Version 6.0.0.1551
Parameter List :
Instrument  Cary 5000
Instrument Version  2.24
Method Log     :
Method Name    :
Date/Time stamp: 27-Nov-18 08:30:27
Method Modifications:
Storage Option Changed: 27-Nov-18 08:33:35, Old:1, New:0
X Start nm Changed: 27-Nov-18 08:33:35, Old:800.000, New:500.000
X Stop nm Changed: 27-Nov-18 08:33:35, Old:200.000, New:350.000
UVVIS Scan Rate nm Changed: 27-Nov-18 08:33:35, Old:  602.007, New:  600.000
NIR Scan Rate nm Changed: 27-Nov-18 08:33:35, Old:  602.007, New:  600.000
UVVIS Interval EV Changed: 27-Nov-18 08:33:35, Old:0.00015, New:0.00015
NIR Interval EV Changed: 27-Nov-18 08:33:35, Old:0.00015, New:0.00015
Common Interval EV Changed: 27-Nov-18 08:33:35, Old:0.00015, New:0.00015
Y min Changed: 27-Nov-18 08:33:35, Old:     0.00, New:    -0.05
Y max Changed: 27-Nov-18 08:33:35, Old:     1.00, New:     0.05
Baseline Correction Changed: 27-Nov-18 08:33:35, Old:0, New:2
Sipper Type Changed: 27-Nov-18 08:33:35, Old:Internal RSA, New:External sipper
End Method Modifications
<Current Wavelength> , 350.000
<SBW (nm)> , 2.00
<Energy> , 38.02
<Slit Height> , Full

40,
40
Collection Time: 27-Nov-18 09:11:34
Operator Name  :
Scan Version 6.0.0.1551
Parameter List :
Instrument  Cary 5000
Instrument Version  2.24
Method Log     :
Method Name    :
Date/Time stamp: 27-Nov-18 08:30:27
Method Modifications:
Storage Option Changed: 27-Nov-18 08:33:35, Old:1, New:0
X Start nm Changed: 27-Nov-18 08:33:35, Old:800.000, New:500.000
X Stop nm Changed: 27-Nov-18 08:33:35, Old:200.000, New:350.000
UVVIS Scan Rate nm Changed: 27-Nov-18 08:33:35, Old:  602.007, New:  600.000
NIR Scan Rate nm Changed: 27-Nov-18 08:33:35, Old:  602.007, New:  600.000
UVVIS Interval EV Changed: 27-Nov-18 08:33:35, Old:0.00015, New:0.00015
NIR Interval EV Changed: 27-Nov-18 08:33:35, Old:0.00015, New:0.00015
Common Interval EV Changed: 27-Nov-18 08:33:35, Old:0.00015, New:0.00015
Y min Changed: 27-Nov-18 08:33:35, Old:     0.00, New:    -0.05
Y max Changed: 27-Nov-18 08:33:35, Old:     1.00, New:     0.05
Baseline Correction Changed: 27-Nov-18 08:33:35, Old:0, New:2
Sipper Type Changed: 27-Nov-18 08:33:35, Old:Internal RSA, New:External sipper
End Method Modifications
<Current Wavelength> , 350.000
<SBW (nm)> , 2.00
<Energy> , 38.02
<Slit Height> , Full

60,
60
Collection Time: 27-Nov-18 09:13:42
Operator Name  :
Scan Version 6.0.0.1551
Parameter List :
Instrument  Cary 5000
Instrument Version  2.24
Method Log     :
Method Name    :
Date/Time stamp: 27-Nov-18 08:30:27
Method Modifications:
Storage Option Changed: 27-Nov-18 08:33:35, Old:1, New:0
X Start nm Changed: 27-Nov-18 08:33:35, Old:800.000, New:500.000
X Stop nm Changed: 27-Nov-18 08:33:35, Old:200.000, New:350.000
UVVIS Scan Rate nm Changed: 27-Nov-18 08:33:35, Old:  602.007, New:  600.000
NIR Scan Rate nm Changed: 27-Nov-18 08:33:35, Old:  602.007, New:  600.000
UVVIS Interval EV Changed: 27-Nov-18 08:33:35, Old:0.00015, New:0.00015
NIR Interval EV Changed: 27-Nov-18 08:33:35, Old:0.00015, New:0.00015
Common Interval EV Changed: 27-Nov-18 08:33:35, Old:0.00015, New:0.00015
Y min Changed: 27-Nov-18 08:33:35, Old:     0.00, New:    -0.05
Y max Changed: 27-Nov-18 08:33:35, Old:     1.00, New:     0.05
Baseline Correction Changed: 27-Nov-18 08:33:35, Old:0, New:2
Sipper Type Changed: 27-Nov-18 08:33:35, Old:Internal RSA, New:External sipper
End Method Modifications
<Current Wavelength> , 350.000
<SBW (nm)> , 2.00
<Energy> , 38.02
<Slit Height> , Full

80,
80
Collection Time: 27-Nov-18 09:15:50
Operator Name  :
Scan Version 6.0.0.1551
Parameter List :
Instrument  Cary 5000
Instrument Version  2.24
Method Log     :
Method Name    :
Date/Time stamp: 27-Nov-18 08:30:27
Method Modifications:
Storage Option Changed: 27-Nov-18 08:33:35, Old:1, New:0
X Start nm Changed: 27-Nov-18 08:33:35, Old:800.000, New:500.000
X Stop nm Changed: 27-Nov-18 08:33:35, Old:200.000, New:350.000
UVVIS Scan Rate nm Changed: 27-Nov-18 08:33:35, Old:  602.007, New:  600.000
NIR Scan Rate nm Changed: 27-Nov-18 08:33:35, Old:  602.007, New:  600.000
UVVIS Interval EV Changed: 27-Nov-18 08:33:35, Old:0.00015, New:0.00015
NIR Interval EV Changed: 27-Nov-18 08:33:35, Old:0.00015, New:0.00015
Common Interval EV Changed: 27-Nov-18 08:33:35, Old:0.00015, New:0.00015
Y min Changed: 27-Nov-18 08:33:35, Old:     0.00, New:    -0.05
Y max Changed: 27-Nov-18 08:33:35, Old:     1.00, New:     0.05
Baseline Correction Changed: 27-Nov-18 08:33:35, Old:0, New:2
Sipper Type Changed: 27-Nov-18 08:33:35, Old:Internal RSA, New:External sipper
End Method Modifications
<Current Wavelength> , 350.000
<SBW (nm)> , 2.00
<Energy> , 38.02
<Slit Height> , Full

100,
100
Collection Time: 27-Nov-18 09:18:33
Operator Name  :
Scan Version 6.0.0.1551
Parameter List :
Instrument  Cary 5000
Instrument Version  2.24
Method Log     :
Method Name    :
Date/Time stamp: 27-Nov-18 08:30:27
Method Modifications:
Storage Option Changed: 27-Nov-18 08:33:35, Old:1, New:0
X Start nm Changed: 27-Nov-18 08:33:35, Old:800.000, New:500.000
X Stop nm Changed: 27-Nov-18 08:33:35, Old:200.000, New:350.000
UVVIS Scan Rate nm Changed: 27-Nov-18 08:33:35, Old:  602.007, New:  600.000
NIR Scan Rate nm Changed: 27-Nov-18 08:33:35, Old:  602.007, New:  600.000
UVVIS Interval EV Changed: 27-Nov-18 08:33:35, Old:0.00015, New:0.00015
NIR Interval EV Changed: 27-Nov-18 08:33:35, Old:0.00015, New:0.00015
Common Interval EV Changed: 27-Nov-18 08:33:35, Old:0.00015, New:0.00015
Y min Changed: 27-Nov-18 08:33:35, Old:     0.00, New:    -0.05
Y max Changed: 27-Nov-18 08:33:35, Old:     1.00, New:     0.05
Baseline Correction Changed: 27-Nov-18 08:33:35, Old:0, New:2
Sipper Type Changed: 27-Nov-18 08:33:35, Old:Internal RSA, New:External sipper
End Method Modifications
<Current Wavelength> , 350.000
<SBW (nm)> , 2.00
<Energy> , 38.02
<Slit Height> , Full

120,
120
Collection Time: 27-Nov-18 09:21:21
Operator Name  :
Scan Version 6.0.0.1551
Parameter List :
Instrument  Cary 5000
Instrument Version  2.24
Method Log     :
Method Name    :
Date/Time stamp: 27-Nov-18 08:30:27
Method Modifications:
Storage Option Changed: 27-Nov-18 08:33:35, Old:1, New:0
X Start nm Changed: 27-Nov-18 08:33:35, Old:800.000, New:500.000
X Stop nm Changed: 27-Nov-18 08:33:35, Old:200.000, New:350.000
UVVIS Scan Rate nm Changed: 27-Nov-18 08:33:35, Old:  602.007, New:  600.000
NIR Scan Rate nm Changed: 27-Nov-18 08:33:35, Old:  602.007, New:  600.000
UVVIS Interval EV Changed: 27-Nov-18 08:33:35, Old:0.00015, New:0.00015
NIR Interval EV Changed: 27-Nov-18 08:33:35, Old:0.00015, New:0.00015
Common Interval EV Changed: 27-Nov-18 08:33:35, Old:0.00015, New:0.00015
Y min Changed: 27-Nov-18 08:33:35, Old:     0.00, New:    -0.05
Y max Changed: 27-Nov-18 08:33:35, Old:     1.00, New:     0.05
Baseline Correction Changed: 27-Nov-18 08:33:35, Old:0, New:2
Sipper Type Changed: 27-Nov-18 08:33:35, Old:Internal RSA, New:External sipper
End Method Modifications
<Current Wavelength> , 350.000
<SBW (nm)> , 2.00
<Energy> , 38.02
<Slit Height> , Full

160,
160
Collection Time: 27-Nov-18 09:23:19
Operator Name  :
Scan Version 6.0.0.1551
Parameter List :
Instrument  Cary 5000
Instrument Version  2.24
Method Log     :
Method Name    :
Date/Time stamp: 27-Nov-18 08:30:27
Method Modifications:
Storage Option Changed: 27-Nov-18 08:33:35, Old:1, New:0
X Start nm Changed: 27-Nov-18 08:33:35, Old:800.000, New:500.000
X Stop nm Changed: 27-Nov-18 08:33:35, Old:200.000, New:350.000
UVVIS Scan Rate nm Changed: 27-Nov-18 08:33:35, Old:  602.007, New:  600.000
NIR Scan Rate nm Changed: 27-Nov-18 08:33:35, Old:  602.007, New:  600.000
UVVIS Interval EV Changed: 27-Nov-18 08:33:35, Old:0.00015, New:0.00015
NIR Interval EV Changed: 27-Nov-18 08:33:35, Old:0.00015, New:0.00015
Common Interval EV Changed: 27-Nov-18 08:33:35, Old:0.00015, New:0.00015
Y min Changed: 27-Nov-18 08:33:35, Old:     0.00, New:    -0.05
Y max Changed: 27-Nov-18 08:33:35, Old:     1.00, New:     0.05
Baseline Correction Changed: 27-Nov-18 08:33:35, Old:0, New:2
Sipper Type Changed: 27-Nov-18 08:33:35, Old:Internal RSA, New:External sipper
End Method Modifications
<Current Wavelength> , 350.000
<SBW (nm)> , 2.00
<Energy> , 38.02
<Slit Height> , Full

200,
200
Collection Time: 27-Nov-18 09:25:43
Operator Name  :
Scan Version 6.0.0.1551
Parameter List :
Instrument  Cary 5000
Instrument Version  2.24
Method Log     :
Method Name    :
Date/Time stamp: 27-Nov-18 08:30:27
Method Modifications:
Storage Option Changed: 27-Nov-18 08:33:35, Old:1, New:0
X Start nm Changed: 27-Nov-18 08:33:35, Old:800.000, New:500.000
X Stop nm Changed: 27-Nov-18 08:33:35, Old:200.000, New:350.000
UVVIS Scan Rate nm Changed: 27-Nov-18 08:33:35, Old:  602.007, New:  600.000
NIR Scan Rate nm Changed: 27-Nov-18 08:33:35, Old:  602.007, New:  600.000
UVVIS Interval EV Changed: 27-Nov-18 08:33:35, Old:0.00015, New:0.00015
NIR Interval EV Changed: 27-Nov-18 08:33:35, Old:0.00015, New:0.00015
Common Interval EV Changed: 27-Nov-18 08:33:35, Old:0.00015, New:0.00015
Y min Changed: 27-Nov-18 08:33:35, Old:     0.00, New:    -0.05
Y max Changed: 27-Nov-18 08:33:35, Old:     1.00, New:     0.05
Baseline Correction Changed: 27-Nov-18 08:33:35, Old:0, New:2
Sipper Type Changed: 27-Nov-18 08:33:35, Old:Internal RSA, New:External sipper
End Method Modifications
<Current Wavelength> , 350.000
<SBW (nm)> , 2.00
<Energy> , 38.02
<Slit Height> , Full

400,
400
Collection Time: 27-Nov-18 09:34:55
Operator Name  :
Scan Version 6.0.0.1551
Parameter List :
Instrument  Cary 5000
Instrument Version  2.24
Method Log     :
Method Name    :
Date/Time stamp: 27-Nov-18 08:30:27
Method Modifications:
Storage Option Changed: 27-Nov-18 08:33:35, Old:1, New:0
X Start nm Changed: 27-Nov-18 08:33:35, Old:800.000, New:500.000
X Stop nm Changed: 27-Nov-18 08:33:35, Old:200.000, New:350.000
UVVIS Scan Rate nm Changed: 27-Nov-18 08:33:35, Old:  602.007, New:  600.000
NIR Scan Rate nm Changed: 27-Nov-18 08:33:35, Old:  602.007, New:  600.000
UVVIS Interval EV Changed: 27-Nov-18 08:33:35, Old:0.00015, New:0.00015
NIR Interval EV Changed: 27-Nov-18 08:33:35, Old:0.00015, New:0.00015
Common Interval EV Changed: 27-Nov-18 08:33:35, Old:0.00015, New:0.00015
Y min Changed: 27-Nov-18 08:33:35, Old:     0.00, New:    -0.05
Y max Changed: 27-Nov-18 08:33:35, Old:     1.00, New:     0.05
Baseline Correction Changed: 27-Nov-18 08:33:35, Old:0, New:2
Sipper Type Changed: 27-Nov-18 08:33:35, Old:Internal RSA, New:External sipper
End Method Modifications
<Current Wavelength> , 350.000
<SBW (nm)> , 2.00
<Energy> , 38.02
<Slit Height> , Full

600,
600
Collection Time: 27-Nov-18 09:37:28
Operator Name  :
Scan Version 6.0.0.1551
Parameter List :
Instrument  Cary 5000
Instrument Version  2.24
Method Log     :
Method Name    :
Date/Time stamp: 27-Nov-18 08:30:27
Method Modifications:
Storage Option Changed: 27-Nov-18 08:33:35, Old:1, New:0
X Start nm Changed: 27-Nov-18 08:33:35, Old:800.000, New:500.000
X Stop nm Changed: 27-Nov-18 08:33:35, Old:200.000, New:350.000
UVVIS Scan Rate nm Changed: 27-Nov-18 08:33:35, Old:  602.007, New:  600.000
NIR Scan Rate nm Changed: 27-Nov-18 08:33:35, Old:  602.007, New:  600.000
UVVIS Interval EV Changed: 27-Nov-18 08:33:35, Old:0.00015, New:0.00015
NIR Interval EV Changed: 27-Nov-18 08:33:35, Old:0.00015, New:0.00015
Common Interval EV Changed: 27-Nov-18 08:33:35, Old:0.00015, New:0.00015
Y min Changed: 27-Nov-18 08:33:35, Old:     0.00, New:    -0.05
Y max Changed: 27-Nov-18 08:33:35, Old:     1.00, New:     0.05
Baseline Correction Changed: 27-Nov-18 08:33:35, Old:0, New:2
Sipper Type Changed: 27-Nov-18 08:33:35, Old:Internal RSA, New:External sipper
End Method Modifications
<Current Wavelength> , 350.000
<SBW (nm)> , 2.00
<Energy> , 38.02
<Slit Height> , Full

800,
800
Collection Time: 27-Nov-18 09:40:34
Operator Name  :
Scan Version 6.0.0.1551
Parameter List :
Instrument  Cary 5000
Instrument Version  2.24
Method Log     :
Method Name    :
Date/Time stamp: 27-Nov-18 08:30:27
Method Modifications:
Storage Option Changed: 27-Nov-18 08:33:35, Old:1, New:0
X Start nm Changed: 27-Nov-18 08:33:35, Old:800.000, New:500.000
X Stop nm Changed: 27-Nov-18 08:33:35, Old:200.000, New:350.000
UVVIS Scan Rate nm Changed: 27-Nov-18 08:33:35, Old:  602.007, New:  600.000
NIR Scan Rate nm Changed: 27-Nov-18 08:33:35, Old:  602.007, New:  600.000
UVVIS Interval EV Changed: 27-Nov-18 08:33:35, Old:0.00015, New:0.00015
NIR Interval EV Changed: 27-Nov-18 08:33:35, Old:0.00015, New:0.00015
Common Interval EV Changed: 27-Nov-18 08:33:35, Old:0.00015, New:0.00015
Y min Changed: 27-Nov-18 08:33:35, Old:     0.00, New:    -0.05
Y max Changed: 27-Nov-18 08:33:35, Old:     1.00, New:     0.05
Baseline Correction Changed: 27-Nov-18 08:33:35, Old:0, New:2
Sipper Type Changed: 27-Nov-18 08:33:35, Old:Internal RSA, New:External sipper
End Method Modifications
<Current Wavelength> , 350.000
<SBW (nm)> , 2.00
<Energy> , 38.02
<Slit Height> , Full

1000,
1000
Collection Time: 27-Nov-18 09:43:15
Operator Name  :
Scan Version 6.0.0.1551
Parameter List :
Instrument  Cary 5000
Instrument Version  2.24
Method Log     :
Method Name    :
Date/Time stamp: 27-Nov-18 08:30:27
Method Modifications:
Storage Option Changed: 27-Nov-18 08:33:35, Old:1, New:0
X Start nm Changed: 27-Nov-18 08:33:35, Old:800.000, New:500.000
X Stop nm Changed: 27-Nov-18 08:33:35, Old:200.000, New:350.000
UVVIS Scan Rate nm Changed: 27-Nov-18 08:33:35, Old:  602.007, New:  600.000
NIR Scan Rate nm Changed: 27-Nov-18 08:33:35, Old:  602.007, New:  600.000
UVVIS Interval EV Changed: 27-Nov-18 08:33:35, Old:0.00015, New:0.00015
NIR Interval EV Changed: 27-Nov-18 08:33:35, Old:0.00015, New:0.00015
Common Interval EV Changed: 27-Nov-18 08:33:35, Old:0.00015, New:0.00015
Y min Changed: 27-Nov-18 08:33:35, Old:     0.00, New:    -0.05
Y max Changed: 27-Nov-18 08:33:35, Old:     1.00, New:     0.05
Baseline Correction Changed: 27-Nov-18 08:33:35, Old:0, New:2
Sipper Type Changed: 27-Nov-18 08:33:35, Old:Internal RSA, New:External sipper
End Method Modifications
<Current Wavelength> , 350.000
<SBW (nm)> , 2.00
<Energy> , 38.02
<Slit Height> , Full

1200,
1200
Collection Time: 27-Nov-18 09:45:09
Operator Name  :
Scan Version 6.0.0.1551
Parameter List :
Instrument  Cary 5000
Instrument Version  2.24
Method Log     :
Method Name    :
Date/Time stamp: 27-Nov-18 08:30:27
Method Modifications:
Storage Option Changed: 27-Nov-18 08:33:35, Old:1, New:0
X Start nm Changed: 27-Nov-18 08:33:35, Old:800.000, New:500.000
X Stop nm Changed: 27-Nov-18 08:33:35, Old:200.000, New:350.000
UVVIS Scan Rate nm Changed: 27-Nov-18 08:33:35, Old:  602.007, New:  600.000
NIR Scan Rate nm Changed: 27-Nov-18 08:33:35, Old:  602.007, New:  600.000
UVVIS Interval EV Changed: 27-Nov-18 08:33:35, Old:0.00015, New:0.00015
NIR Interval EV Changed: 27-Nov-18 08:33:35, Old:0.00015, New:0.00015
Common Interval EV Changed: 27-Nov-18 08:33:35, Old:0.00015, New:0.00015
Y min Changed: 27-Nov-18 08:33:35, Old:     0.00, New:    -0.05
Y max Changed: 27-Nov-18 08:33:35, Old:     1.00, New:     0.05
Baseline Correction Changed: 27-Nov-18 08:33:35, Old:0, New:2
Sipper Type Changed: 27-Nov-18 08:33:35, Old:Internal RSA, New:External sipper
End Method Modifications
<Current Wavelength> , 350.000
<SBW (nm)> , 2.00
<Energy> , 38.02
<Slit Height> , Full

1400,
1400
Collection Time: 27-Nov-18 09:47:44
Operator Name  :
Scan Version 6.0.0.1551
Parameter List :
Instrument  Cary 5000
Instrument Version  2.24
Method Log     :
Method Name    :
Date/Time stamp: 27-Nov-18 08:30:27
Method Modifications:
Storage Option Changed: 27-Nov-18 08:33:35, Old:1, New:0
X Start nm Changed: 27-Nov-18 08:33:35, Old:800.000, New:500.000
X Stop nm Changed: 27-Nov-18 08:33:35, Old:200.000, New:350.000
UVVIS Scan Rate nm Changed: 27-Nov-18 08:33:35, Old:  602.007, New:  600.000
NIR Scan Rate nm Changed: 27-Nov-18 08:33:35, Old:  602.007, New:  600.000
UVVIS Interval EV Changed: 27-Nov-18 08:33:35, Old:0.00015, New:0.00015
NIR Interval EV Changed: 27-Nov-18 08:33:35, Old:0.00015, New:0.00015
Common Interval EV Changed: 27-Nov-18 08:33:35, Old:0.00015, New:0.00015
Y min Changed: 27-Nov-18 08:33:35, Old:     0.00, New:    -0.05
Y max Changed: 27-Nov-18 08:33:35, Old:     1.00, New:     0.05
Baseline Correction Changed: 27-Nov-18 08:33:35, Old:0, New:2
Sipper Type Changed: 27-Nov-18 08:33:35, Old:Internal RSA, New:External sipper
End Method Modifications
<Current Wavelength> , 350.000
<SBW (nm)> , 2.00
<Energy> , 38.02
<Slit Height> , Full

1600,
1600
Collection Time: 27-Nov-18 09:49:31
Operator Name  :
Scan Version 6.0.0.1551
Parameter List :
Instrument  Cary 5000
Instrument Version  2.24
Method Log     :
Method Name    :
Date/Time stamp: 27-Nov-18 08:30:27
Method Modifications:
Storage Option Changed: 27-Nov-18 08:33:35, Old:1, New:0
X Start nm Changed: 27-Nov-18 08:33:35, Old:800.000, New:500.000
X Stop nm Changed: 27-Nov-18 08:33:35, Old:200.000, New:350.000
UVVIS Scan Rate nm Changed: 27-Nov-18 08:33:35, Old:  602.007, New:  600.000
NIR Scan Rate nm Changed: 27-Nov-18 08:33:35, Old:  602.007, New:  600.000
UVVIS Interval EV Changed: 27-Nov-18 08:33:35, Old:0.00015, New:0.00015
NIR Interval EV Changed: 27-Nov-18 08:33:35, Old:0.00015, New:0.00015
Common Interval EV Changed: 27-Nov-18 08:33:35, Old:0.00015, New:0.00015
Y min Changed: 27-Nov-18 08:33:35, Old:     0.00, New:    -0.05
Y max Changed: 27-Nov-18 08:33:35, Old:     1.00, New:     0.05
Baseline Correction Changed: 27-Nov-18 08:33:35, Old:0, New:2
Sipper Type Changed: 27-Nov-18 08:33:35, Old:Internal RSA, New:External sipper
End Method Modifications
<Current Wavelength> , 350.000
<SBW (nm)> , 2.00
<Energy> , 38.02
<Slit Height> , Full

1800,
1800
Collection Time: 27-Nov-18 09:51:23
Operator Name  :
Scan Version 6.0.0.1551
Parameter List :
Instrument  Cary 5000
Instrument Version  2.24
Method Log     :
Method Name    :
Date/Time stamp: 27-Nov-18 08:30:27
Method Modifications:
Storage Option Changed: 27-Nov-18 08:33:35, Old:1, New:0
X Start nm Changed: 27-Nov-18 08:33:35, Old:800.000, New:500.000
X Stop nm Changed: 27-Nov-18 08:33:35, Old:200.000, New:350.000
UVVIS Scan Rate nm Changed: 27-Nov-18 08:33:35, Old:  602.007, New:  600.000
NIR Scan Rate nm Changed: 27-Nov-18 08:33:35, Old:  602.007, New:  600.000
UVVIS Interval EV Changed: 27-Nov-18 08:33:35, Old:0.00015, New:0.00015
NIR Interval EV Changed: 27-Nov-18 08:33:35, Old:0.00015, New:0.00015
Common Interval EV Changed: 27-Nov-18 08:33:35, Old:0.00015, New:0.00015
Y min Changed: 27-Nov-18 08:33:35, Old:     0.00, New:    -0.05
Y max Changed: 27-Nov-18 08:33:35, Old:     1.00, New:     0.05
Baseline Correction Changed: 27-Nov-18 08:33:35, Old:0, New:2
Sipper Type Changed: 27-Nov-18 08:33:35, Old:Internal RSA, New:External sipper
End Method Modifications
<Current Wavelength> , 350.000
<SBW (nm)> , 2.00
<Energy> , 38.02
<Slit Height> , Full

2000,
2000
Collection Time: 27-Nov-18 09:53:14
Operator Name  :
Scan Version 6.0.0.1551
Parameter List :
Instrument  Cary 5000
Instrument Version  2.24
Method Log     :
Method Name    :
Date/Time stamp: 27-Nov-18 08:30:27
Method Modifications:
Storage Option Changed: 27-Nov-18 08:33:35, Old:1, New:0
X Start nm Changed: 27-Nov-18 08:33:35, Old:800.000, New:500.000
X Stop nm Changed: 27-Nov-18 08:33:35, Old:200.000, New:350.000
UVVIS Scan Rate nm Changed: 27-Nov-18 08:33:35, Old:  602.007, New:  600.000
NIR Scan Rate nm Changed: 27-Nov-18 08:33:35, Old:  602.007, New:  600.000
UVVIS Interval EV Changed: 27-Nov-18 08:33:35, Old:0.00015, New:0.00015
NIR Interval EV Changed: 27-Nov-18 08:33:35, Old:0.00015, New:0.00015
Common Interval EV Changed: 27-Nov-18 08:33:35, Old:0.00015, New:0.00015
Y min Changed: 27-Nov-18 08:33:35, Old:     0.00, New:    -0.05
Y max Changed: 27-Nov-18 08:33:35, Old:     1.00, New:     0.05
Baseline Correction Changed: 27-Nov-18 08:33:35, Old:0, New:2
Sipper Type Changed: 27-Nov-18 08:33:35, Old:Internal RSA, New:External sipper
End Method Modifications
<Current Wavelength> , 350.000
<SBW (nm)> , 2.00
<Energy> , 38.02
<Slit Height> , Full

2200,
2200
Collection Time: 27-Nov-18 09:58:25
Operator Name  :
Scan Version 6.0.0.1551
Parameter List :
Instrument  Cary 5000
Instrument Version  2.24
Method Log     :
Method Name    :
Date/Time stamp: 27-Nov-18 08:30:27
Method Modifications:
Storage Option Changed: 27-Nov-18 08:33:35, Old:1, New:0
X Start nm Changed: 27-Nov-18 08:33:35, Old:800.000, New:500.000
X Stop nm Changed: 27-Nov-18 08:33:35, Old:200.000, New:350.000
UVVIS Scan Rate nm Changed: 27-Nov-18 08:33:35, Old:  602.007, New:  600.000
NIR Scan Rate nm Changed: 27-Nov-18 08:33:35, Old:  602.007, New:  600.000
UVVIS Interval EV Changed: 27-Nov-18 08:33:35, Old:0.00015, New:0.00015
NIR Interval EV Changed: 27-Nov-18 08:33:35, Old:0.00015, New:0.00015
Common Interval EV Changed: 27-Nov-18 08:33:35, Old:0.00015, New:0.00015
Y min Changed: 27-Nov-18 08:33:35, Old:     0.00, New:    -0.05
Y max Changed: 27-Nov-18 08:33:35, Old:     1.00, New:     0.05
Baseline Correction Changed: 27-Nov-18 08:33:35, Old:0, New:2
Sipper Type Changed: 27-Nov-18 08:33:35, Old:Internal RSA, New:External sipper
End Method Modifications
<Current Wavelength> , 350.000
<SBW (nm)> , 2.00
<Energy> , 39.81
<Slit Height> , Full

2400,
2400
Collection Time: 27-Nov-18 10:00:14
Operator Name  :
Scan Version 6.0.0.1551
Parameter List :
Instrument  Cary 5000
Instrument Version  2.24
Method Log     :
Method Name    :
Date/Time stamp: 27-Nov-18 08:30:27
Method Modifications:
Storage Option Changed: 27-Nov-18 08:33:35, Old:1, New:0
X Start nm Changed: 27-Nov-18 08:33:35, Old:800.000, New:500.000
X Stop nm Changed: 27-Nov-18 08:33:35, Old:200.000, New:350.000
UVVIS Scan Rate nm Changed: 27-Nov-18 08:33:35, Old:  602.007, New:  600.000
NIR Scan Rate nm Changed: 27-Nov-18 08:33:35, Old:  602.007, New:  600.000
UVVIS Interval EV Changed: 27-Nov-18 08:33:35, Old:0.00015, New:0.00015
NIR Interval EV Changed: 27-Nov-18 08:33:35, Old:0.00015, New:0.00015
Common Interval EV Changed: 27-Nov-18 08:33:35, Old:0.00015, New:0.00015
Y min Changed: 27-Nov-18 08:33:35, Old:     0.00, New:    -0.05
Y max Changed: 27-Nov-18 08:33:35, Old:     1.00, New:     0.05
Baseline Correction Changed: 27-Nov-18 08:33:35, Old:0, New:2
Sipper Type Changed: 27-Nov-18 08:33:35, Old:Internal RSA, New:External sipper
End Method Modifications
<Current Wavelength> , 350.000
<SBW (nm)> , 2.00
<Energy> , 39.81
<Slit Height> , Full

